MMM,ABT,ANF,ACN,ACE,ACT,ADBE,AMD,AES,AET,AFL,A,GAS,APD,ARG,AKAM,AA,ALXN,ATI,AGN,ALL,ALTR,MO,AMZN,AEE,AEP,AXP,AIG,AMT,AMP,ABC,AMGN,APH,APC,ADI,AON,APA,AIV,APOL,AAPL,AMAT,ADM,AIZ,T,ADSK,ADP,AN,AZO,AVB,AVY,AVP,BHI,BLL,BAC,BCR,BAX,BBT,BDX,BBBY,BMS,BRK.B,BBY,BIIB,BLK,HRB,BMC,BA,BWA,BXP,BSX,BMY,BRCM,BF.B,CA,CVC,COG,CAM,CPB,COF,CAH,CFN,KMX,CCL,CAT,CBG,CBS,CELG,CNP,CTL,CERN,CF,CHRW,CHK,CVX,CMG,CB,CI,CINF,CTAS,CSCO,C,CTXS,CLF,CLX,CME,CMS,COH,KO,CCE,CTSH,CL,CMCSA,CMA,CSC,CAG,COP,CNX,ED,STZ,GLW,COST,CVH,COV,CCI,CSX,CMI,CVS,DHR,DRI,DVA,DF,DE,DLPH,DNR,XRAY,DVN,DO,DTV,DFS,DISCA,DG,DLTR,D,DOV,DOW,DPS,DTE,DUK,DNB,ETFC,DD,EMN,ETN,EBAY,ECL,EIX,EW,EA,EMC,EMR,ESV,ETR,EOG,EQT,EFX,EQR,EL,EXC,EXPE,EXPD,ESRX,XOM,FFIV,FDO,FAST,FDX,FIS,FITB,FHN,FSLR,FE,FISV,FLIR,FLS,FLR,FMC,FTI,F,FRX,FOSL,BEN,FCX,FTR,GME,GCI,GPS,GRMN,GD,GE,GIS,GPC,GNW,GILD,GS,GT,GWW,HAL,HOG,HAR,HRS,HIG,HAS,HCP,HCN,HP,HSY,HES,HPQ,HD,HON,HRL,DHI,HSP,HST,HCBK,HUM,HBAN,ITW,IR,TEG,INTC,ICE,IPG,IBM,IFF,IGT,IP,INTU,ISRG,IVZ,IRM,JBL,JEC,JDSU,JNJ,JCI,JOY,JPM,JNPR,K,KEY,KMB,KIM,KMI,KLAC,KSS,KR,LLL,LH,LRCX,LM,LEG,LEN,LUK,LIFE,LLY,LNC,LLTC,LMT,L,LO,LOW,LYB,MTB,M,MRO,MPC,MAR,MMC,MAS,MA,MAT,MKC,MCD,MCK,MJN,MWV,MDT,MRK,MET,MCHP,MU,MSFT,TAP,MDLZ,MON,MNST,MCO,MS,MOS,MSI,MUR,MYL,NBR,NDAQ,NOV,NTAP,NFLX,NWL,NFX,NEM,NEE,NKE,NI,NE,NBL,JWN,NSC,NU,NTRS,NOC,NRG,NUE,NVDA,ORLY,OXY,OMC,OKE,ORCL,OI,PCAR,PLL,PH,PDCO,PAYX,BTU,JCP,PNR,PBCT,POM,PEP,PKI,PRGO,PETM,PFE,PCG,PM,PSX,PNW,PXD,PBI,PCL,PNC,PPG,PPL,PX,PCP,PCLN,PFG,PG,PGR,PLD,PRU,PEG,PSA,PHM,PVH,QEP,QCOM,PWR,DGX,RL,RRC,RTN,RHT,RF,RSG,RAI,RHI,ROK,COL,ROP,ROST,RDC,R,SWY,CRM,SNDK,SCG,SLB,SCHW,SNI,STX,SEE,SRE,SHW,SIAL,SPG,SLM,SJM,SNA,SO,LUV,SWN,SE,S,STJ,SWK,SPLS,SBUX,HOT,STT,SRCL,SYK,STI,SYMC,SYY,TROW,TGT,TEL,TE,THC,TDC,TER,TSO,TXN,TXT,BK,WMB,TMO,TIF,TWC,TWX,TJX,TMK,TSS,TRV,TRIP,TYC,TSN,UNP,UPS,X,UTX,UNH,UNM,URBN,USB,VLO,VAR,VTR,VRSN,VZ,VFC,VIAB,V,VNO,VMC,WMT,WAG,DIS,WM,WAT,WLP,WFC,WDC,WU,WY,WHR,WFM,WIN,WEC,WPX,WYN,WYNN,XEL,XRX,XLNX,XL,XYL,YHOO,YUM,ZMH,ZION
86.07,30.16,34.98,55.85,67.41,76.97,31.89,4.86,12.43,37.02,41.59,26.9,36.16,76.61,80.81,30.49,8.14,100.32,30.56,87.09,33.14,30.64,32.06,226.17,30.45,37.9,54.74,31.41,68.27,48.94,38.4,76.34,28.98,71.45,35.56,46.09,84.97,25.66,30.2,83.11,10.11,25.92,32.99,31.64,33.45,46.82,40.78,382.9,138.73,27.52,15.91,40.53,41.36,7.19,105.83,52.96,29.94,72.46,62.29,29.43,84.63,17.6,143.74,165.91,15.44,15.09,70.86,32.28,102.33,5.58,33.61,31.43,61.98,24.44,13.04,19.59,45.27,31.41,54.59,41.38,25.37,27.28,30.99,77.94,16.32,31.05,33.99,19.2,36,39.07,197.83,56.4,16.68,101,403.86,68.34,42.33,34.66,36.05,15.58,26.53,82.63,43.54,67.69,46.31,22.27,57.52,36.35,26.16,29.48,49.96,31.13,30.02,22.72,22.7,51.44,29.43,57.63,29.15,11.78,87.39,28.59,45.53,58.28,21.6,85.04,43.91,50.8,47.27,49.19,11.1,71.68,26.53,15.33,36.82,57.08,56.3,48.95,33.76,26.08,52.29,52.67,49.78,42.91,28.99,40.99,55.63,59.79,69.97,7.82,45.81,47.96,37.11,43.95,66.28,43.01,102.82,12.27,24.86,44.16,46.74,64.03,48.53,54.86,47.5,59.66,53.65,35.13,46.59,37.36,58.76,80.57,102.75,63.71,42.68,91.65,31.18,13.04,8.28,15.13,44.46,35.76,18.91,37.13,48.05,54.07,42.45,8.73,35.41,72.15,36.25,30.3,3.08,15.54,13.73,28.3,33.97,62.2,18.39,36.34,60.41,5.06,26.88,92.05,9.98,197.77,29.49,43.31,38.63,39.24,16.19,30.95,40.45,53.8,43.9,68.34,44.04,18.08,48.63,55.19,27.55,18.14,36.64,14.31,5.66,71.58,6.23,51,32.04,53.67,23.83,132.05,11.03,185.47,53.14,14.85,30.07,58.2,544.21,21.02,23.93,20.09,38.76,9.58,64.92,24.87,51.41,32.4,15.77,44.92,7.56,76.48,17.55,31.62,46.16,46.42,20.75,67.65,88.12,34.99,25.27,20.12,30.03,20.8,43.88,40.84,20.28,29.25,80.88,40.46,41.33,24.9,37.06,81.72,33.91,25.48,43.33,36.12,31.11,13.87,42.37,31.87,58.49,86.14,94.77,72.11,26.56,37.16,40.63,28.69,30.26,5.78,28.73,39.03,25.59,83.77,67.83,35.82,12.91,55.22,45.47,40.8,22.61,14.2,21.97,61.64,30.38,83.12,17.41,32.65,42.5,65.26,46.18,23.42,28.58,43.18,50.92,69.6,37.36,43.76,61.26,17.33,35.64,12.65,94.15,81.74,47.27,35.73,30.04,20.05,35.87,50.96,74.4,33.7,29.88,21.74,20.66,38.98,10.63,17.48,66,24.84,113.99,67.75,21.85,41.2,82.23,34.07,48.24,93.36,11.73,37.05,58.08,107.69,26.01,104.24,168.13,672.67,24.64,60.54,17.82,30.48,45.05,29.86,135.79,10.3,80.13,29.58,56,22.71,58.35,148.73,61.31,53.18,55.61,6.48,25.71,41.26,27.8,62.73,48.59,95.42,66.97,34.73,34.08,13.22,34.78,34.4,44.25,66.28,12.54,53.21,24.93,14.92,65.85,129.19,70.57,139.24,5.18,73.03,64.69,42.59,9,31.68,27.94,3.71,36.71,62.46,11.76,52.49,48.1,39.95,94.17,50.3,23.58,13.3,27,59.82,57.74,31.02,16.24,19.12,68.3,13.73,26.12,26.17,26.35,20.25,28.39,52.24,55,81.72,35.88,43.9,33.6,23.4,60.3,45.1,25.17,14.99,58.72,75.02,19.36,71.99,53.02,18.41,31.56,32.06,22.16,59.43,59.55,44,40.38,36.54,44.91,123.23,76.94,43.95,67.75,32.78,47.66,30.69,78.51,60.12,31.87,31.37,15.85,21.48,65.45,43.39,7.72,38.47,15.28,49.26,85.52,26.58,6.83,29.6,19.98,23.2,15.73,62.93,62.93,19.05
85.27,29.82,35.15,55.52,66.6,75.81,31.38,4.22,12.38,36.53,40.87,26.27,36.25,75.61,80.04,29.91,8.02,99.35,29.36,84.79,32.85,29.99,32.03,228.29,30.53,37.84,54.33,30.69,68.66,47.42,37.89,74.55,28.58,70.93,35.09,45.69,83.17,25.45,29.38,81.75,9.93,25.65,32.48,31.47,32.16,46.49,39.68,377.98,137.58,26.99,15.07,44.26,40.83,7,104.07,52.74,29.64,71.35,61.38,29.24,83.83,17.1,142.21,163.26,15.41,14.95,69.94,31.63,101.94,5.38,32.93,30.63,61.65,24.02,13.42,20,45.66,31.04,54.12,41,25.01,26.94,30.54,76.36,16.14,30.79,33.21,19.41,35.9,38.51,196.97,53.97,15.7,101.33,316.98,67.33,41.63,34.26,35.69,15.28,25.81,80.75,42.46,67.11,45.68,22.37,55.46,36.11,25.59,28.66,49.43,30.94,29.5,22.48,22.28,51.09,30.03,58,28.44,11.6,87.08,28.21,45.24,58.19,21.21,82.53,43.57,50.82,46.37,48.6,10.69,71.86,26.32,15.38,36.32,57.12,56.59,48.33,33.74,25.61,52.34,51.38,49.56,42.47,28.62,40.83,55.95,59.88,68.38,7.39,45.51,47.33,36.67,44.85,65.6,43.21,101.09,11.98,24.46,43.43,47.43,63.88,49.01,55.97,46.95,59.24,52.2,35.28,46.14,35.99,57.21,80.33,96.1,64.39,41.41,88.97,30.73,12.89,7.83,14.79,44.56,35.55,18.58,36.71,47.58,53.51,42.09,8.6,34.9,68.51,35.27,29.73,3.1,15.07,13.68,28.03,33.59,61.24,18.46,36.15,59.92,4.79,26.54,91.23,9.7,196.88,30.03,42.47,38.16,38.75,15.63,31.06,40.06,53.55,43.74,68.02,44.44,17.62,48.38,54.99,27.22,18.54,35.45,14.16,5.52,71.68,6.02,50.66,31.1,53.95,23.34,129.4,11.06,182.73,52.82,14.52,29.8,57.29,498.5,20.26,23.5,19.82,37.89,9.31,64.08,24.11,50.08,31.88,15.58,44.52,7.54,75.55,17.38,31.39,46.04,45.85,20.63,66.83,85.26,34.62,24.79,19.78,30.55,20.37,43.34,40.62,19.49,28.96,80.15,40.03,41.19,24.67,36.74,80.16,34.02,25.28,43.38,35.7,30.7,13.65,41.89,31.7,58.12,85.04,93.88,71.29,26.43,36.45,40.14,27.52,29.86,5.83,28.22,39,25.57,84.49,64.97,35.16,12.46,55.1,44.5,40.76,22.3,14.07,21.55,60.54,30.45,81.82,17.21,32.05,42.5,65.43,45.13,23.7,29.7,42.99,50.12,68.49,37.16,43.1,60.92,17.29,35.39,12.29,91.31,81.77,46.58,35.7,29.31,19.64,35.38,50.19,73.57,33.43,29.61,21.61,20.62,38.08,10.21,17.53,65.57,24.43,112.13,67.09,21.76,41.36,81.62,33.8,48.65,92.62,11.71,36.59,56.02,109.51,26.1,102.72,164.81,673.2,24.12,60.36,17.76,29.95,43.32,29.79,135.43,10.69,78.9,29.27,55.27,22.01,56.17,145.63,61.67,52.48,53.72,6.25,25.43,41.16,27.02,61.78,47.29,95.83,65.87,34.8,33.46,13.05,33.79,37.95,44.29,66.94,12.12,52.76,24.59,14.84,66.09,128.35,69.79,138.22,5.35,72.66,65.08,42.65,8.71,31.97,27.97,3.66,36.15,62.8,11.49,50.32,47.98,38.54,93.34,49.57,22.88,13.05,26.81,58.65,57.85,30.34,16.29,18.6,66.97,13.55,26.42,25.43,26.16,19.76,28.62,51.28,53.84,80.88,35.62,43.24,33.35,23.27,59.37,44.9,24.94,14.72,57.2,73.59,18.46,70.48,53.43,18,31.01,31.87,22.27,57.08,59.43,43.19,40.33,36.07,44.68,123.58,76.12,43.91,68.43,32.76,47.27,30.34,76.48,59.39,31.55,30.76,15.66,21.47,64.64,40.27,7.65,38.44,15.54,48.69,83.51,26.74,6.36,29.45,19.56,22.88,15.92,62.06,61.28,18.55
84.68,29.63,34.43,54.34,65.76,75.48,30.64,4.15,12.07,36.13,40.05,25.67,36.1,74.81,78.51,28.66,7.91,98.44,28.21,84.42,32.6,29.88,31.66,226.01,30.24,37.62,54.25,30.34,67.71,46.34,37.35,74.32,28.54,69.19,34.63,45.39,82.03,25.31,28.92,81.69,9.91,25.52,32.32,31.55,31.79,46.01,39.54,377.63,136.56,26.52,14.54,44.88,40.41,7.02,102.36,52.04,29.47,70.63,62,29.12,83.59,17.52,139.23,157.17,15.21,14.53,69.02,31.03,101.15,5.26,32.51,30.01,60.25,23.66,13.46,19.92,45.41,30.73,53.55,40.41,24.67,27.21,29.95,76.95,15.78,30.18,32.89,19.25,35.5,38.22,192.28,53.61,15.92,100.18,306.01,66.57,41.09,34.22,35.6,15.01,25.28,77.77,40.92,67.62,45.43,22.23,54.67,36.04,26.25,28.25,48.9,30.16,28.97,21.96,22.17,50.24,29.94,57.81,28.3,11.46,85.97,27.94,43.59,57.87,20.76,83.85,43.31,50.48,45.28,47.56,11.12,71.17,26.23,14.68,35.65,56.5,55.52,47.26,33.34,25.17,52.32,50.65,49.14,41.52,28.16,40.57,55.16,59.23,67.29,7.2,45.36,46.38,38.09,44.24,64.99,42.86,100.49,11.82,24.21,43.47,45.75,63.61,48.01,55.71,46.8,59.11,51.47,35.28,45.43,36.22,57.01,79.64,93.59,63.8,41.52,88.16,30.6,12.77,7.66,14.22,44.14,34.83,18.63,36.35,46.57,52.8,40.78,8.56,34.28,68.33,34.77,28.71,3.04,14.93,13.21,28,32.66,60.25,18.66,35.62,59.4,4.83,25.94,90.26,9.93,196.34,30.76,41.82,36.48,38.27,15.44,32.3,40.33,53.89,43.41,67.6,43.47,17.32,48.63,54.7,27,18.72,34.35,13.78,5.43,70.53,5.89,50.93,31.18,53.59,23.1,129.48,10.82,181.19,51.74,14.14,29.63,55.73,477.47,19.95,23.37,19.53,37.28,8.78,63.59,23.38,49.88,32.38,15.15,44.06,7.43,75.43,17.24,31.27,45.12,45.89,20.44,64.93,84.34,34.27,24.47,19.69,30.55,20.2,42.75,40.31,19.21,28.76,79.42,39.95,40.78,24.81,36.24,79.43,33.47,24.72,43.67,34.68,30.46,13.45,41.18,31.65,57.13,82.59,92.39,70.19,26,35.96,40.01,27.17,29.32,5.62,27.43,38.46,24.95,82.44,66.16,34.67,12.32,55.09,43.92,40.86,22,13.93,21.33,59.98,29.87,79.94,16.68,31.41,41.89,64.93,45.01,23.4,28.85,41.94,49.8,67.74,36.72,42.87,59.98,18.69,35.29,12.45,90.3,79.67,45.83,35.61,28.86,19.22,35.9,49.46,73.38,32.75,29.37,22.09,20.84,37.95,10.09,17.49,64.99,23.99,111.04,65.54,21.66,40.83,80.79,33.51,48.17,88.59,11.63,36.62,54.57,106.53,25.94,101.53,161.98,669.11,23.87,60.04,17.62,29.31,42.51,29.61,135.16,10.83,77.58,28.83,54.92,22.22,54.96,143.85,61.21,52.13,52.64,6.23,25.34,40.82,26.75,62.7,47.2,94.63,65.37,34.18,33,12.77,32.75,39.11,43.83,67.15,11.86,52.32,24.36,14.67,64.91,127.94,69.1,137.31,5.26,72.02,64.65,42.53,8.56,31.71,27.67,3.57,35.22,61.42,11.49,49.01,46.88,38.2,92.63,48.96,22.31,12.89,26.52,58.32,56.97,30.24,16.14,17.88,66.37,13.3,26.37,25.03,25.74,19.53,28.77,49.95,53.06,80.23,34.37,43.14,33.11,22.92,58.45,45.61,24.51,14.57,56.1,73.12,18.25,69.58,52.56,17.81,30.3,31.7,22.36,56.79,59.24,42.14,40.21,35.99,43.9,122.32,75.1,43.79,68.05,32.12,46.68,30.31,75.59,59.27,31.2,30.96,15.84,21.46,64.35,40.17,7.59,38.08,15.09,47.33,81.54,26.48,6.39,29.06,19.62,22.97,15.76,60.31,60.57,18.39
83.62,29.31,33.47,53.89,65.08,74.69,30.02,4.06,11.73,35.96,39.68,24.91,36.21,74.15,77.06,28.39,7.79,97.62,27.27,83.52,32.19,29.45,31.73,223.04,30.08,37.4,54.16,30.19,66.93,45.69,36.92,73.21,28.34,67.83,34.35,44.91,80.81,25.05,27.81,81.29,9.81,25.35,31.67,30.88,31.33,45.79,39.25,376.34,135.48,28.46,14.63,43.82,39.92,6.97,101.08,51.57,29.6,69.81,60.93,28.96,83.7,16.98,139.48,154.89,14.96,14.33,68.18,29.92,100.65,5.2,32.29,29.8,59.84,23.44,13.37,19.65,44.35,30.42,53.26,40.11,24.1,27,29.58,76.81,15.31,30.21,32,18.86,35.16,37.74,188.43,53.29,15.35,98.64,294.31,65.65,41.17,34.14,35.55,14.12,25.18,76.76,39.39,67.28,45.42,21.99,53.75,35.93,26.3,27.83,48.58,30.19,28.72,21.66,21.99,49.86,28.64,57.83,28.45,11.41,85.68,28.04,42.96,57.12,20.53,83.27,43.1,49.8,44.64,47.4,10.76,69.96,25.86,14.26,35.1,55.08,54.83,46.94,33.09,25.09,52.48,50.63,48.69,40.55,27.81,40.42,54.43,59.02,66.02,7.18,44.45,46.12,38.49,43.52,63.82,42.57,98.65,11.54,24.74,42.58,44.68,63.6,47.17,54.83,46.72,58.66,51.41,34.95,45.38,35.66,56.63,79.05,89.44,64.15,40.36,86.59,30.61,12.94,7.72,14.07,43.7,34.6,18.55,35.89,45.92,52.57,40.27,8.46,33.71,67.17,34.32,27.89,2.99,14.55,12.99,27.76,33.75,59.76,18.55,35.34,58.99,4.79,25.55,91.53,9.69,191.07,30.8,41,36,37.53,15.3,32.09,40.58,53.89,42.45,67.19,43,17.03,48.83,53.98,26.85,18.33,33.65,13.36,5.4,70.18,5.99,49.71,30.84,53.16,22.87,130.79,10.67,180.72,51.15,13.95,28.98,55.41,472.48,19.46,23.16,18.98,36.4,8.93,62.88,22.42,48.33,32.66,14.76,43.48,7.5,74.35,17.15,31.28,45,45.18,20.28,64.59,84.39,34.01,24.34,19.66,29.97,20.04,41.85,38.61,18.79,28.35,80.22,39.78,40.47,24.81,35.71,79.68,32.9,24.21,42.32,33.93,30.02,13.17,40.58,31.77,57.13,81.77,91.35,70.36,25.38,35.62,39.47,26.73,29.01,5.73,27.31,38.2,24.84,82.11,65.44,34.63,12.3,54.59,43.34,40.08,21.54,13.8,21.03,59.28,30.5,80.39,16.56,30.47,41.73,64.28,45.07,23.21,28.05,41.09,49.47,67.52,36.3,42.63,60.38,17.96,34.61,12.32,88.88,78.53,45.64,35.13,28.54,18.74,36.1,48.44,72.66,32.16,29.2,19.6,21.01,39.72,10.21,17.38,64.47,23.48,109.98,65.37,21.46,40.41,80.52,33.72,47.84,86.84,11.57,36.13,54.34,104.42,25.74,100.12,160.73,665.58,23.67,59.7,17.31,29.24,42.17,29.51,134.84,10.31,75.96,28.34,54.42,22.05,54.73,141.71,60.35,51.73,51.48,6.48,25.32,40.47,26.23,62.02,45.32,92.58,64.9,33.34,34.97,12.77,31.68,38.88,43.44,65.6,11.78,51.85,24.27,14.65,64.3,128.32,66.55,138.78,5.21,71.16,64.36,42.06,8.52,32.14,27.27,3.45,34.76,60.89,11.34,48.89,45.87,37.91,91.38,48.96,22.13,12.67,26.44,57.9,57.08,29.92,15.83,17.8,65.55,13.15,25.36,24.79,25.06,19.4,28.31,49.04,52.63,79.5,34.72,42.95,32.85,22.9,57.65,43.47,24.3,14.43,55.86,69.74,17.88,68.31,52.94,17.44,29.96,31.75,21.97,55.66,59.34,41.78,39.68,35.58,43.59,120.53,74.4,42.57,68.32,32.3,46.85,29.95,75.69,58.89,31.01,30.47,16.14,21.24,59.51,40.26,7.41,37.83,14.76,46.48,79.81,26.3,6.17,28.97,19.44,22.69,15.43,59.97,59.52,17.78
84.1,29.39,33.93,54.26,68.04,76.79,30.33,4.01,11.43,34.26,38.99,25.28,36.07,74.18,75.31,28.25,7.79,105.13,26.63,83.09,32.13,33.04,31.58,217.05,30.11,37.2,54.56,29.82,67.05,45.23,36.68,74.73,28.81,68.43,35.52,44.88,81.69,25.12,28.03,77.78,9.89,25.37,31.91,31.51,31.94,45.92,39.17,378.39,135.03,28.09,14.52,43.7,39.62,7,101.7,53.33,29.62,70.33,60.32,28.69,84.04,16.26,143.45,154.55,14.94,14.47,70.08,30.71,100.82,5.33,32.5,31.95,59.54,23.67,13.54,19.55,44.84,30.48,53.14,40.08,24.26,26.75,30.08,77.92,15.1,30.42,32.64,18.88,34.91,37.8,190,49.48,15.77,98.42,296.48,65.85,39.9,34.14,35.62,14.4,25.73,75.11,37.99,67.13,45.56,21.91,54.06,36.1,26.72,28.05,48.65,30.15,28.71,21.88,22.25,48.58,27.07,57.74,27.76,10.53,85.38,26.71,43.42,56.96,20.7,83.48,43.05,50.77,44.51,47.85,10.61,69.83,26.05,14.46,35.37,54.8,55.21,47.53,33.03,25.24,51.29,50.14,48.95,40.5,28.02,40.82,54.39,59.52,67.28,7.18,44.85,46.65,39.48,43.19,63.83,42.39,105.06,11.51,24.56,42.82,44.97,63.44,47.26,54.14,46.97,58.69,51.35,34.61,43.35,34.58,56.6,79.67,91.98,62.23,40.51,86.16,30.29,12.99,7.71,14.18,43.21,34.49,18.72,36.14,46.27,53.04,42.68,8.38,33.43,67.23,34.13,27.67,2.97,14.58,12.97,28.11,34.17,58.44,18.58,35.39,58.88,4.67,25.59,92.98,9.63,191.52,30.55,40.69,35.78,37.89,15.34,31.86,40.84,53.91,41.5,67.13,44.5,16.83,48.73,54.09,26.81,17.65,34.02,13.24,5.5,68.22,5.97,50.1,30.55,53.03,22.98,128.97,10.49,181.43,51.66,11.17,28.95,55.17,483.59,19.28,23.21,19.29,36.61,9.16,63.05,22.59,49.55,33.07,16.43,43.46,7.54,74.27,17.13,31.63,45.78,45.01,20.42,65.87,84.23,34.06,23.98,20.01,28.76,19.9,42.76,39.66,18.72,29.29,80.12,39.78,38.53,24.64,35.7,79.63,33,24.14,42.38,34.23,30.18,12.47,40.82,31.8,56.93,81.76,91.26,70.23,25.7,35.78,39.41,26.69,29.43,5.84,27.01,37.94,24.73,81.86,66.57,34.91,12.63,55.05,45.76,40.57,21.69,13.19,22.03,58.9,30.72,60.28,16.56,29.88,43.11,63.88,45.33,23.22,28.34,41.42,50.13,67.28,36.44,42.4,60.13,18.21,34.33,12.56,90.1,78.32,45.91,34.94,28.48,18.62,35.81,48.94,73.24,32.66,29.21,18.17,22,39.82,10.17,17.39,65.89,23.98,111.32,64.99,21.42,40.83,79.78,33.88,47.67,87.67,11.46,36.17,54.63,103.39,25.65,98.34,159.82,631.04,23.63,59.7,17.35,29.55,42.53,29.48,134.7,9.86,75.24,28.11,54.88,22.11,55.12,139.77,60.25,51.52,51.83,6.73,25.34,40.52,25.07,59.94,46.79,92.66,65.14,33.65,35.71,12.55,31.33,38.96,43.5,65.9,11.95,51.96,24.14,14.55,63.64,126.44,65.74,137.67,5.32,71.2,65.1,42.32,8.33,31.73,27.31,3.37,35.23,60.67,11.2,48.82,45.8,37.67,91.72,49.46,22.15,14.38,26.29,56.26,56.9,29.95,15.78,17.56,65.77,13.37,25.48,24.85,25.16,19.6,27.98,53.33,52.58,79.45,35.34,43.21,32.82,21.89,57.74,36.18,24.65,14.32,56.14,69.67,17.6,68.94,50.6,17.59,30.09,31.57,21.73,57.31,59.41,41.44,39.64,35.31,43.59,120.09,74.26,42.02,68.27,32.81,46.99,29.87,75.11,51.79,30.94,31.14,15.89,21.21,61.77,40.51,7.23,37.33,14.76,47.81,79.63,26.26,6.06,29.63,19.71,23,15.5,60.68,59.68,17.71
85.84,29.64,34.26,55.71,67.97,77.78,30.95,4.04,11.61,34.24,39.17,25.61,36.52,75.09,74.96,35.04,7.95,106.14,27.47,84.77,32.6,33.36,31.78,220.01,30.54,37.86,56.23,30.35,68.76,47.85,36.69,76,29.43,70.05,35.89,45.21,83.25,25.04,27.51,77.77,10.05,25.82,33.32,32.37,33.49,46.84,39.17,373.38,134.34,28.46,15.03,45.12,40.04,7.1,96.93,54.18,30.02,71.07,61.69,28.88,84.67,16.16,147.75,155.43,14.99,14.76,70.91,31.14,102.11,4.97,33.29,32.04,60.39,24.26,13.6,20.79,49.91,30.63,54.58,40.02,24.17,27.03,30.36,78.58,15.37,31.9,33.74,19.18,35.35,39.02,189.06,49.49,16.57,100.47,289.86,66.34,39.61,34.58,36.51,14.36,26.22,74.22,35.61,67.83,46.61,22.36,56.29,36.96,27.73,28.48,50.61,30.39,29.33,22.71,22.47,49.64,27.66,58.59,28.71,10.62,87.35,26.98,45.41,59.85,21.1,85.41,43.07,51.72,46.27,48.86,10.79,71.06,26.29,15.3,35.51,56.12,56.47,48.88,34.34,25.8,51.28,51.02,49.72,41.4,27.01,41.65,55.11,60.9,68.23,7.26,45.41,47.72,40.52,43.79,64.4,42.89,102.54,10.95,25.15,43.84,46.89,64.05,48.12,55.21,45.48,58.16,52.68,35.04,44.78,34.79,56.84,80.86,94.55,63.99,41.13,87.46,30.32,13.36,7.75,14,43.97,35.4,20.19,36.62,48.04,54.18,45.46,8.37,33.51,70.91,34.62,28.44,3,14.77,13.07,28.46,34.06,59.29,19.1,35.6,59.67,4.77,25.84,95.01,9.78,194.44,31.78,41.78,36.53,38.75,15.52,32.43,41.17,54.07,43.92,68.18,46.56,17.05,50.49,54.99,26.91,18.46,34.5,13.57,5.55,66.4,6.09,50.92,30.91,53.82,23.32,131.02,9.45,184.15,51.87,10.58,29.93,55.94,489.2,19.67,23.96,19.91,37.65,9.56,64.18,23.02,49.82,33.67,16.76,43.56,7.7,76.34,17.27,32.04,46.45,44.76,20.69,65.8,85,34.19,24.33,20.6,29.9,20.45,43.76,40.11,19.03,29.89,80.92,40.46,38.01,25.61,36.12,80.78,34,25.05,43.63,34.93,30.62,12.6,41.95,31.93,57.87,82.65,90.84,68.03,25.79,35.82,40.07,27.34,29.94,5.96,27.32,38.96,25.07,82.64,67.72,38.82,12.67,55.56,45.44,41.56,22.75,13.7,22.36,64.13,31.33,57.01,16.81,30.96,43.39,65.65,46.82,23.54,29.42,42.44,50.98,68.5,36.97,43.23,60.96,18.77,34.77,12.61,86.97,81.88,46.88,35.33,29.2,17.58,36.72,50.05,74.99,33,29.71,18.78,22.21,41.43,10.2,17.55,66.75,24.46,113.37,65.69,21.56,41.53,81.35,34.41,48.39,89.4,11.36,36.58,55.36,104.1,25.88,99.81,156.75,628.32,24.16,60.2,17.38,30.08,43.24,30.18,136.62,11.67,77.96,28.72,55.78,22.69,55.68,144.12,60.89,51.03,52.97,6.89,25.43,40.64,25.3,61.68,47.61,94.69,65,34.32,36.27,12.63,31.15,40.7,44.15,68.85,12.24,52.52,27.58,14.6,65.15,129.91,66.74,140.01,5.44,72.05,66.55,42.93,8.54,32.83,27.8,4.05,35.4,62.4,11.45,50.75,48.72,38.17,92.22,49.49,22.77,14.77,26.76,57.01,57.56,30.99,15.99,17.6,67.93,14.76,26.11,25.24,25.42,20.05,28.46,53.88,53.91,80.49,35.16,43.13,31.99,22.13,58.33,35.04,25.02,14.33,57.78,70.24,17.92,69.25,50.15,17.77,30.5,31.86,22.24,53.73,59.73,42.63,40.31,35.7,44.32,124.58,75.34,37.69,69.77,33.11,48.36,30.48,77.09,51.19,31.52,37.67,16.14,21.33,63.96,45.1,7.4,37.84,15.05,48.64,79.89,26.67,6.31,30.49,19.71,22.82,15.8,62.21,57.45,17.9
86.9,30.43,35.19,56.86,69.69,79.77,31.9,4.09,11.62,35.57,41.07,26.54,36.87,76.39,75.33,35.86,8.21,108.97,28.74,85.88,33.16,34.61,32.02,237.32,31.07,38.28,56.98,31.22,70.02,49.52,37.36,80.44,29.46,70.29,36.85,47.97,85.6,25.27,28.39,79.16,10.3,26.16,34.05,33.12,34.6,47.74,40.12,374.79,135.2,28.99,15.49,45.96,40.95,7.24,98.04,56.02,30.32,72.45,63.62,29.02,85.2,16.66,149.47,160.77,15.1,14.7,71.48,33.28,102.74,5.22,33.52,32.66,61.19,22.52,13.88,20.91,51.82,30.98,55.78,40.28,24.39,28,31.37,81.27,16.33,32.82,35.3,19.45,35.77,36.85,194.57,50.55,16.85,101.39,296.08,68.98,41.34,35.02,37.23,14.65,27.24,77.81,36.36,68.06,46.67,22.61,58.53,37.5,28.31,29.26,50.99,31.04,29.65,23.33,22.67,50.16,28.58,59.03,29.02,10.9,88.44,29.92,47.34,60.84,21.67,88.79,43.44,52.51,47.18,49.31,10.81,73.97,27.1,15.62,36.74,57.02,57.57,49.4,35.19,26.58,50.99,51.96,50.49,43.06,26.92,42.52,56.06,61.01,69.51,7.53,46.29,49.79,41.35,45.22,65.54,43.54,105.19,11.41,25.92,45.1,49.5,65.03,49.89,56.42,45.57,58.22,53.66,35.39,53.78,35.02,57.95,81.73,97.75,64.26,41.83,89.77,30.91,13.46,7.96,14.5,44.63,36.19,20.25,37.9,49.38,54.23,46.85,8.41,34.04,76.78,35.86,29.46,3.08,14.93,13.29,28.71,35.21,60.16,19.43,35.91,60.61,5.07,27.75,98.48,10.45,199.73,32.82,43.17,39.55,39.93,15.8,33.28,41.81,54.76,46.62,68.88,47.34,17.58,51.25,56.19,27.32,18.06,35.08,13.9,5.66,68.66,6.08,52.55,32.78,54.63,23.8,132.52,9.66,186.47,53.16,10.78,30.78,57.48,498.94,20.81,24.3,20.46,39.45,9.95,64.91,23.9,51.51,34.69,17.71,44.1,7.82,77.77,17.59,32.44,47.62,46.33,21.01,66.09,85.21,33.96,24.07,20.73,30.05,21.18,44.76,40.81,19.72,30.55,82.43,41.16,38.13,26.06,39.31,81.56,34.92,25.75,44.79,35.73,31.64,12.83,43.24,32.52,58.49,82.82,90.33,69.31,26.09,37.22,41.7,28.37,30.33,6.28,27.88,39.88,25.09,83.87,68.16,39.62,13.2,56.28,45.71,42.75,23.27,14.13,22.39,64.43,32.13,58.92,17.18,31.24,41.92,65.99,47.04,23.89,30.22,43.69,51.99,70.08,36.88,44,61.9,18.94,35.87,12.93,87.17,83.1,47.64,36.72,29.95,17.97,38.78,51.57,77.82,33.88,30.2,19.92,23,43.1,10.31,17.74,67.73,25.31,115.24,66.59,21.88,41.93,82.91,34.95,49.16,92.23,11.33,37.11,56.42,106.21,26.22,101.26,157.99,683.99,23.55,60.69,17.54,30.33,44.6,30.62,138.78,11.82,80.69,29.18,56.86,23.14,56.19,144.72,62.4,52.07,55.81,6.92,26.32,41.18,25.98,64.63,48.26,97.38,65.72,35.4,37.51,12.82,32.87,41.62,45.01,70.45,12.53,53.69,27.53,15.18,66.25,131.93,69.21,141.31,5.49,72.47,67.53,43.23,8.75,33.01,28.16,4.31,35.89,64.88,11.49,45.97,49.94,38.82,94.52,50.56,23.13,15.31,27.17,58.44,57.99,31.54,16.27,19.28,68.26,14.88,26.87,25.67,26.25,20.48,28.89,55.26,55.24,80.56,35.73,43.62,32.58,22.84,59.38,35.41,25.75,14.7,58.58,71.3,18.73,70.53,51.43,18.13,30.97,32.17,22.75,55.56,60.7,45.42,40.71,35.99,45.02,126.91,76,39.64,70.58,33.82,48.58,31.44,79.06,52.85,31.87,38.29,16.47,21.96,65.59,44.36,7.55,38.2,15.15,50.15,81.63,26.97,6.5,31.11,20.02,23.28,16.11,63.76,57.56,18.3
86.5,30.53,33.89,56.81,69.68,78.78,31.01,4.1,11.74,36.03,41.4,26.71,36.96,76.46,76.7,35.82,8.21,104.59,28.53,84.94,33.18,33.81,32.26,236.09,31.3,38.42,56.75,31.37,69.81,49.24,37.24,80,29.31,70.63,36.71,48.6,85.64,25.68,27.22,80.5,10.22,26.11,34.65,33.38,34.12,47.52,39.86,375.79,135.83,29.41,14.8,45.96,40.96,7.21,96.71,55.33,29.67,72.71,62.62,28.93,85.23,16.94,147.28,162.05,15.22,14.61,70.86,33.19,102.4,5.16,33.13,32.73,61.14,22.36,14.01,21.39,51.58,31.12,55.1,41.2,24.43,27.97,31.32,80.83,16.24,32.8,34.7,19.45,35.8,36.92,191.86,50.45,17.07,101.91,291.13,69.53,41.32,35.28,37.39,14.82,27.08,73.25,36.67,67.99,46.5,22.62,57.1,38.02,28.29,28.66,51.13,30.97,29.31,23.38,23.1,50.06,28.66,59.06,28.65,10.8,87.85,29.43,47.72,61.67,21.7,86.74,43.81,52.48,47.05,49.9,10.83,73.23,27.3,15.32,36.77,57.34,57.96,49.33,35.26,26.02,50.95,51.44,50.45,43.19,26.69,42.51,56.53,61.56,68.02,7.54,46.25,49.07,41.24,45.6,66.49,43.88,103.44,11.23,25.69,45,51.3,65.45,49.18,56.98,45.8,58.54,52.81,35.5,54.98,34.98,57.85,81.84,95.28,64.33,41.46,89.87,30.27,13.25,7.9,14.21,45,36.12,19.89,37.8,48.89,53.81,46.28,8.5,33.83,74.87,36.88,29.92,3.07,14.82,13.08,28.62,35.14,59.82,19.32,36.11,60.38,5.1,27.81,97.74,10.25,199.53,32.75,43.03,39.58,39.6,15.73,33.66,41.79,55.12,46.1,68.88,47.16,17.29,50.81,55.6,27.14,17.58,34.88,13.77,5.69,68.69,6,51.89,32.64,54.9,23.56,130.64,9.4,186.74,53.58,10.88,30.3,57.11,491.61,20.95,24.04,20.45,39.2,9.87,64.84,23.57,50.74,33.98,17.47,44.3,7.7,78.31,17.69,32.46,47.85,46.84,21.07,66.56,84.95,34.02,23.98,21.04,29.28,21.05,44.01,40.51,19.61,30.32,81.4,39.03,38.19,25.86,39.37,81.3,35.03,25.62,45.2,35.36,31.98,12.66,43.67,32.68,58.58,82.95,89.26,69.87,25.99,37.01,41.13,28.57,30.76,6.11,27.77,40.18,25.15,83.89,68.2,39.51,13.22,55.92,45.67,42.91,23.34,14.35,22.31,64.77,31.72,57.75,16.89,31.03,42.61,66.3,46.47,23.92,30.45,43.47,52.14,69.6,37.45,43.49,62.81,19.13,35.89,12.79,86.05,83.67,47.84,36.75,29.76,18.21,38.45,51.53,77.19,33.73,30.31,20.16,22.19,42.65,10.32,17.95,68.19,25.19,114.31,65.91,21.77,42.29,83.72,36.03,49.32,90.26,11.52,37.21,56.66,106.76,26.25,100.7,155.88,682.54,23.73,60.7,17.59,30.09,45.05,30.85,139.28,11.41,80.98,30.07,56.68,23.27,56.2,143.7,63.99,51.95,53.76,6.87,26.68,41.48,26.1,65.21,48.63,98.41,65.58,35.94,37.4,12.91,31.47,40.37,45.18,70.04,12.4,53.88,27.92,15.34,66.25,132.13,68,141.85,5.46,73.31,66.32,43.15,9,34.27,28.37,4.51,35.9,64.74,11.74,45.4,49.7,38.64,93.99,50.49,22.91,14.87,27.26,57.46,58.48,31.94,16.48,18.6,67.66,14.54,26.68,25.55,26.21,20.53,29.04,55.23,55.03,81.07,35.37,43.82,32.6,22.96,59.85,36.01,25.66,14.54,58.89,71.51,18.57,71.18,51.36,18.18,30.95,32.01,22.74,54.87,61.19,45.51,40.75,36.02,44.96,128.58,76.46,38.64,71.01,34.34,48.45,31.84,78.11,52.95,31.69,38.53,16.41,21.88,65.23,44,7.61,38.32,16.09,50.69,81.58,27.09,6.56,30.85,20.11,23.28,15.98,63.44,57.43,18.12
86.45,30.4,32.36,56.74,69.63,77.83,30.88,4.06,11.69,34.98,41.35,26.78,36.8,75.61,76.11,35.18,8.23,104.85,28.59,81.72,32.75,34.04,32.09,233.3,30.88,38.12,56.18,30.93,70,48.76,38.37,79.18,28.92,68.35,36.58,48,84.18,25.48,27.2,82.63,10.29,24.78,34.69,33.82,33.92,46.87,39.43,375.23,136.67,28.91,14.84,44.96,40.63,7.27,95.75,54.9,29.35,72.23,60.95,28.88,84.84,16.97,145.83,160.39,15.02,14.64,69.96,33.17,102.84,5.17,33.1,32.82,60.4,22.19,14.13,21,50.27,30.97,54.71,40.99,24.41,27.83,30.88,79.44,15.58,32.72,34.23,19.33,35.95,36.96,190.17,50.07,17.18,101.69,292.33,69.34,40.23,34.82,37.55,14.9,27.07,72.68,37.75,67.68,46.31,22.48,46.5,37.87,27.95,28.39,51.08,31.29,29.06,23.7,23.03,49.68,28.16,58.66,28.21,10.79,87.6,29.27,47.64,61.03,21.75,91.94,43.74,52.48,46.44,49.21,10.9,72.75,27.69,14.95,35.87,57.25,56.79,49.66,34.75,25.87,51.01,50.34,49.89,43.31,26.64,42.51,56.26,61.29,77.15,7.63,46.28,50.31,41.16,44.3,63.86,43.37,101.2,11.02,25.59,44.85,49.38,65.1,48.41,55.84,45.36,58.52,51.39,35.17,55.83,34.55,57.94,81.17,93.38,63.73,40.8,89.19,30.07,13.06,7.97,15.54,44.43,35.06,19.86,39.17,48.41,53.68,45.12,8.63,33.55,71.69,36.74,29.64,3.24,14.82,13.04,28.31,35.19,59.8,19.27,36.08,60.09,5.04,27.17,97.76,11.32,196.91,32.34,41.81,39.03,39.12,15.8,33.21,41.85,55.11,44.62,68.47,46.16,17.27,49.79,55.28,26.85,17.31,34.75,13.82,5.97,59.97,5.91,51.66,32.77,54.39,23.5,129.53,9.42,186.08,53.46,10.75,30.28,56.64,481.5,20.82,23.9,20.93,38.57,9.84,64.63,23.51,50.47,33.85,17.45,44.58,7.63,77.4,17.78,32.44,47.62,46.75,21.3,67.07,84.09,34.23,23.74,21.23,28.93,20.55,43.88,40.5,19.46,30.35,81.58,39.08,38.49,24.42,39.33,80.98,34.25,25.21,45.04,35.28,31.5,11.61,43.22,32.41,58.12,82.98,89.34,70.21,26.05,37.59,40.84,28.68,30.77,6.21,27.61,39.92,25.28,82.65,66.42,39.25,13.36,55.93,46.26,42.24,23.03,13.63,21.86,63.25,31.89,56.85,16.76,30.53,41.86,65.81,45.26,23.88,29.73,42.65,51.74,69.48,36.81,43.19,62.28,19.07,36.55,12.99,85.74,81.61,47.43,36.07,29.39,18.45,38.03,51.51,76.78,32.79,30.14,20,22.51,42.22,10.31,17.77,68.17,25.12,113.26,64.56,22.07,41.98,83.96,35.98,48.93,88.51,11.62,37.17,55.98,105.29,25.98,99.12,155.36,661.74,24.12,60.18,17.51,30.15,44.78,30.16,138.39,11.12,79.2,29.85,57.18,22.99,55.85,141,62.31,51.89,53.66,6.78,27.03,41.29,25.94,64.12,48.53,98.22,64.92,34.75,37.56,13.01,31.09,40.33,44.75,68.8,12.25,52.77,27.54,15.43,65.83,131.06,67.62,141.32,5.45,72.89,65.21,42.99,9.04,33.25,28.23,4.36,35.73,63.21,11.74,43.85,50.05,38.83,92.85,50.2,23,15.14,27.3,57.96,57.17,31.5,16.25,18.48,67.62,14.62,26.63,25.58,25.9,20.37,29.06,54.84,52.84,81,35.86,43.21,32.41,22.87,59.32,37.41,26.21,14.65,58.64,70.93,20.27,70.68,49.26,18.07,30.55,31.77,23.97,54.58,61.12,44.42,40.92,35.79,44.96,126.84,76.14,38.59,70.49,34.43,47.81,31.67,77.48,51.1,31.55,38.15,16.29,21.74,64.59,43.99,7.73,38.04,15.95,49.93,80.89,26.83,6.58,30.64,19.79,23.06,15.84,61.95,57.65,18.02
86.42,30.3,32.57,56.65,69.26,78.75,30.69,4.05,11.64,35.42,41.37,26.71,36.9,76.37,76.04,35.13,8.22,102.72,27.98,85.26,34.75,34.23,32.14,232.09,30.62,38.07,55.29,30.5,69.28,48.71,38.02,78.43,28.86,67.56,36.84,48.33,84.91,25.16,26.63,82.09,10.32,24.39,34.87,33.57,34.04,46.29,38.19,362.77,134.22,28.85,14.66,45.61,39.53,7.15,95.94,55.02,29.3,71.73,60.24,28.37,84.62,16.95,144.28,159.78,14.9,13.87,68.88,32.59,103.12,5.21,33.1,32.79,60.55,22.43,14.13,20.91,50.2,30.83,53.88,40.46,24.41,27.69,31.19,77.96,16.67,32.33,34.08,19.19,36.45,36.33,189.06,50.07,17.04,102.54,280.67,69.25,40.19,34.51,37.56,14.92,26.72,69.33,38.52,67.17,45.42,22.25,46.97,37.97,27.77,28.13,50.72,32.26,29.04,23.59,22.75,50.39,28.87,58.62,29.06,10.69,87.38,28.77,47.75,60.99,21.34,89.75,43.34,52.77,46.54,49.31,10.69,73.43,27.29,15.22,35.67,55.25,57.55,50.1,34.5,25.19,51.06,50.02,49.61,42.89,27.12,42.39,56.1,61.06,71.56,7.75,46.5,50.02,40.96,43.89,64.1,42.19,100.05,11.68,25.52,44.6,49.83,65.01,49.62,55.36,44.5,57.77,49.93,34.39,55.25,34.23,57.1,81.23,93.91,63.74,39.95,87.76,29.37,13.03,7.97,14.8,44.36,34.83,20.11,38.77,48.87,51.88,46.06,8.49,32.97,69.07,36.15,29.48,3.59,14.86,13.08,28.24,35.88,59.43,19.25,35.82,59.35,4.48,26.82,96.98,11.38,195.16,32.61,40.3,38.69,39.74,15.67,33.08,41.61,54.84,45.1,68.11,46.79,16.72,49.32,55.23,26.6,16.96,36.39,13.79,5.91,62.22,5.92,51.33,32.36,54.35,23.71,127.73,9.33,185.32,53.27,10.72,29.92,56.55,476.79,20.6,23.92,20.49,38.35,9.73,64.78,23.19,48.14,33.85,17.63,44.68,7.62,77.63,18.07,32.38,47.5,46.76,21.33,66.1,87.9,34.24,23.86,21.24,28.69,20.64,44.53,40.34,19.26,30.22,81.29,38.94,37.97,24.2,39.06,80.66,33.5,25.26,44.56,35.21,31.34,11.52,42.29,32.04,57.75,83.05,87.75,69.59,25.48,37.45,40.94,28.36,30.97,6.27,27.55,40.39,25.08,83.42,64.86,39.07,13.22,55.79,45.88,42.83,22.95,13.54,21.95,64.47,31.33,54.5,16.41,30.59,41.81,65.52,45.09,23.68,29.94,43.19,50.73,68.79,36.09,42.86,61.94,19,36.37,12.84,85.07,82.35,46.85,36.2,29.51,17.95,37.91,51.32,77.97,32.6,29.85,19.92,21.02,41.49,10.23,17.74,67.86,24.97,113.22,63.6,22.18,41.78,83.23,36.62,48.8,93.73,11.53,37.01,55.98,103.94,25.95,99.33,152.02,642.98,23.85,59.69,17.53,30.21,44.13,29.58,138.08,10.86,77.75,28.5,57.03,22.47,55.69,139.03,63.26,51.36,53.01,6.68,26.75,41.51,25.75,63.02,48.14,100.19,64.59,35.31,36.88,13.04,31.14,40.63,44.49,69.21,12.08,52.65,27.73,15.05,65.52,130.2,67.46,141.93,5.36,71.85,63.92,42.76,9.03,33.01,28.1,4.32,35.94,63.01,11.68,42.4,49.71,38.7,91.85,50.97,23.02,15.39,27.17,57.41,57.14,31.53,16.23,18.52,66.1,14.4,26.79,25.95,25.25,20.25,29.12,54.83,52.68,81.64,36.3,42.81,32.35,22.72,59.98,36.57,26.15,14.75,58.15,70.5,21.21,71.01,49.38,17.79,30.42,31.6,23.67,55.33,60.72,45,40.99,34.94,44.5,125.26,76.49,37.33,69.72,34.34,47.5,31.51,77.32,51.85,31.63,37.81,15.99,21.56,64.44,44.43,7.85,37.61,15.93,49.37,82.22,26.77,6.45,31.03,19.84,22.99,15.99,61.69,57.88,18.1
85.36,30.41,27.82,55.54,68.74,78.36,30.58,3.97,11.74,35.24,40.74,26.41,36.52,75.58,75.61,34.69,7.97,102.3,27.32,84.53,34.87,33.73,31.72,230.81,30.39,37.74,54.99,30.5,69.89,48.22,37.57,77.68,28.52,65.18,36.58,48.15,80.72,24.97,26.04,82.22,10.32,23.87,34.47,33.48,33.78,46.2,38.34,362.34,134.6,28.68,13.84,44.93,38.71,7.11,94.85,54.38,29.08,71,60.61,28.18,84.08,16.31,143.8,158.74,14.53,13.98,68.14,31.5,103.69,5.12,30.26,32.4,59.51,22.25,13.8,20.23,49.67,30.37,53.43,38.9,24.01,26.94,30.65,78.41,16.56,32.31,34.1,19.12,36.06,36.24,188.83,50.35,16.36,101.38,283.77,69.39,41.81,34.51,37.83,14.7,26.13,69.41,37.42,67.22,44.29,22.03,47.4,37.38,27.18,28.14,50.13,32.8,28.65,23.25,22.68,49.87,27.04,58.44,29.08,10.62,87.16,27.95,46.99,61.14,21.43,91.4,43.41,52.5,46.46,48.69,10.52,72.36,26.81,14.63,35.1,53.66,56.88,48.8,34.09,25.68,51.47,50.64,49.43,42.59,26.92,42.06,55.87,61.01,70.34,7.33,45.65,50.73,40.84,43.77,61.94,42.27,99.3,11.37,25.46,44.52,49.7,64.35,47.48,52.83,44.14,58.04,49.92,34.13,55.64,34.18,56.17,80.27,90.53,63.41,40.19,86.84,29.51,12.92,7.8,17.93,43.75,34.1,19.8,38.73,48.54,51.43,45.62,8.38,32.64,66.52,35.47,28.77,3.65,14.57,12.94,31.84,36.77,58.43,19.06,35.44,59.42,4.12,28.65,94.77,10.91,193.49,32.07,39.85,37.82,39.82,15.52,32.78,41.49,55.08,44.21,68.37,45.54,16.61,49.04,54.59,26.43,17.23,35.28,13.67,5.77,61.22,5.85,51.04,32.42,54.09,23.7,127.05,9.24,184.63,52.83,10.54,29.57,56.41,477.79,20.42,23.73,20.4,38.33,9.45,63.91,22.73,47.39,33.07,17.5,46.2,7.58,77.37,18,32.07,48.27,47.15,21.02,64.88,86.25,33.49,23.77,21.04,29.31,19.49,43.61,39.84,20.71,30.14,80.83,38.95,37.53,23.92,39.22,79.73,34.78,24.51,45.71,35.18,31.24,11.58,41.92,31.85,57.32,83.2,86.23,69.37,25.03,37.1,40.6,29.54,30.79,6.16,27.34,38.79,24.79,84.35,64.14,38.58,12.75,54.85,45.76,42.51,22.74,13.19,21.8,63.63,30.86,53.87,15.83,29.37,41.06,65.16,44.86,23.36,29.33,42.13,50.95,68.87,36.23,41.95,61.72,18.37,35.87,12.89,84.56,80.32,46.68,35.95,29.12,17.57,36.66,51.14,75.38,32.4,29.56,19.46,20.46,41.33,10.21,17.53,67.3,24.41,113.45,64.7,22.16,41.6,82.7,36.65,48.64,91.88,11.26,36.86,55.41,103.54,25.7,98.46,153.92,649.01,23.58,59.22,17.07,30.17,46.41,29.3,138.26,11.38,74.97,26.84,56.42,23.93,55.62,136.87,60.88,50.77,53.01,6.55,26.44,41.23,25.7,63.33,47.55,100.8,64.75,34.46,36.64,12.64,30.34,39.96,44.2,68.39,11.86,55.04,27.49,12.52,64.73,131.08,66.67,142.13,5.29,71.1,63.41,42.48,8.79,32.13,27.21,4.29,35.09,61.96,11.54,41.8,49.69,38.04,90.4,49.59,22.57,15.68,26.75,56.41,58.41,30.52,15.87,18.6,67.3,14.27,30.62,25.59,25.05,19.79,28.28,53.58,51.54,83.87,37.28,43.92,32.83,22.44,59.52,36.21,26.24,14.78,58.25,70.36,20.67,70.68,49.27,17.89,29.69,31.2,23.8,54.41,61.09,45.11,40.45,35.11,44.12,127.04,76.53,36.76,70.13,33.85,47.65,31.54,75.4,50.75,31.11,38.27,15.88,21.53,63.91,44.53,7.74,37.29,14.72,49.02,80.7,26.51,6.32,30.85,19.82,22.67,15.75,62.74,56.69,17.87
86.89,30.53,28.12,56.79,69.78,79.36,32.02,4.09,11.88,35.6,42.1,27.36,37.03,77.31,77.34,35.48,8.16,106.96,28.73,85.09,35.36,34.37,32.04,234.97,30.99,38.21,56.08,31,70.74,49.95,38.07,78.8,29.37,67.34,37.26,49.26,82.94,24.8,26.66,83.29,10.6,24.26,35.11,33.52,34.98,47.18,38.83,366.3,134.47,29.22,14.27,45.75,40.18,7.36,95.95,55.3,29.62,70.93,62.44,28.6,85.58,16.54,145.06,163.15,14.82,14.47,68.92,32.59,104.79,5.31,30.35,32.94,61.17,22.85,14.31,20.5,52.09,30.67,55.76,37.33,24.12,27.86,31.58,80.2,17.08,34.28,34.65,19.42,36.12,36.84,196.25,50.78,16.33,103.12,297.65,69.52,42.03,35.19,38.52,15.27,27.35,72.44,38.88,66.8,45.26,22.27,49.64,37.89,27.97,28.93,50.65,33.27,29.5,23.9,22.92,50.84,28.31,58.81,29.92,10.72,88.54,28.37,48.1,61.66,21.91,94.91,43.25,53.02,47.59,49.65,10.76,73.41,27.63,15.41,36.48,54.54,57.89,50.16,35.27,26.73,51.9,51.12,49.98,43.38,27.61,42.53,56.52,62.04,71.67,7.86,46.07,51.16,41.89,44.5,62.85,42.91,101.32,11.97,26.16,45.54,50.59,65.14,52.73,53.66,44.88,57.97,52.09,34.59,56.28,35.06,56.72,81.83,92.78,63.82,40.77,88.71,30.1,13.3,8.03,17.06,44.29,34.81,20.2,40.46,50.96,52.96,47.2,8.54,33.54,68.43,36.28,29.49,3.64,14.7,13.36,32.12,36.69,59.48,19.47,35.91,60.84,4.32,28.43,97.84,11.03,197.35,32.95,41,39.03,40.65,16.24,33.44,41.6,54.85,45.09,68.88,46.7,17.29,49.9,56.1,26.93,17.04,34.59,14.16,5.96,61.04,6.01,52.88,32.91,54.95,24.2,130.55,10.47,188.49,53.21,10.64,30.18,57.66,492.85,21.27,24.35,21.24,38.99,9.85,64.54,23.45,49.15,33.94,18,47.05,7.88,76.01,18.19,32.52,48.74,48.06,21.33,66.03,87.45,34.39,24.88,21.14,29.8,20.01,44.87,40.61,21.38,30.55,81.68,39.83,37.85,24.54,40.07,82.48,35.6,25.45,47.03,36.37,31.69,12.26,41.99,32.46,57.27,83.2,86.09,71.06,25.49,37.97,40.82,30.93,31.99,6.33,27.87,39.7,25.79,84.03,66.78,39.36,13.48,55.21,45.04,43.46,23.13,13.72,22.11,65.92,31.57,53.91,16.21,30.04,42.05,65.79,45.85,23.59,30.57,42.89,51.94,70.32,36.52,43.27,62.44,18.67,36.77,13.16,85.72,83.06,48.16,36.5,29.9,18.11,37.75,52.59,76.45,33.11,30.06,20.39,20.9,42.08,10.39,17.74,68.3,26.33,115.07,65.66,22.49,42.29,84.41,37.96,49.43,97.3,12.06,37.2,57.07,105.04,25.78,101.05,156.05,663.99,24.61,61.08,17.36,31.39,48.26,29.61,137.41,11.3,77.32,27.23,57.72,24.71,56.65,142.3,62.89,51.63,55.5,6.75,26.84,41.59,26.44,65.6,48.75,102.26,66.56,34.73,37.5,12.93,32.07,40.57,44.9,69.9,12.42,56.31,28.38,13.16,65.65,132.75,68.62,143.56,5.46,71.89,64.89,42.71,8.98,30.6,27.33,4.27,36.25,64.27,11.92,42.53,51.49,39.14,91.84,50.89,23.43,16.15,27.15,58.02,58.78,31.47,16.06,18.76,72.7,14.71,30.62,26.55,26.31,20.82,28.82,55.76,52.66,85.07,37.93,44.02,33.46,22.7,60.32,36.68,26.83,15.03,59.56,71.07,21.32,72.93,49.77,18.35,30.16,31.76,24.27,55.46,60.93,45.65,40.31,35.73,45.44,128.72,78.1,38.26,70.61,33.9,48.42,32.01,77.11,52.78,32.04,39.33,16.13,22.02,66.48,45.34,7.79,37.68,15.06,50.34,82.45,26.85,6.58,31.55,20.32,23.11,15.97,64.52,57.74,18.75
86.62,30.42,28.61,57.05,69.81,79.21,32.14,4.01,11.36,35.49,42.44,27.44,37.19,77.76,78.55,35.82,8.29,106.13,29.47,85.05,35.36,34.05,31.93,233.99,31.23,38.25,55.59,31.74,70.19,50.19,37.9,79.01,29.64,67.15,37.29,49.11,84.09,24.87,27.24,84.22,10.66,24.35,35.11,33.54,34.69,47.06,38.61,363.25,133.27,29.33,14.94,45.94,40.34,7.57,96.33,55.04,29.49,71.34,62.04,28.45,85.15,18.75,145.46,162.88,14.84,14.92,69,33.51,104.95,5.26,30.3,32.84,60.08,23.12,14.58,20.3,51.94,30.65,54.9,37.22,24.1,28.44,31.72,81.45,17.73,34.71,35.53,19.33,36.14,36.25,197.64,50.81,16.15,103.29,291.81,69.16,42.1,34.91,38.63,15.59,28.51,72.69,39.94,66.54,46.21,22.25,51.69,37.8,28.13,32.1,50.6,33.59,29.23,24.19,22.89,51,29.32,58.71,29.91,10.67,87.89,5.27,48.24,61.47,21.72,94.22,43.4,52.63,47.94,47.87,10.77,74.28,28.31,15.41,37.07,55.65,58.27,49.77,35.38,27.13,51.54,50.99,49.9,43.77,27.76,42.31,56.33,61.68,71.57,7.92,46.71,52.24,41.97,44.77,62.86,42.5,100.42,12.2,25.99,45.95,51.23,64.69,52.23,54.57,44.92,57.63,52.5,34.22,57.23,35,55.98,81.73,97.13,63.11,40.42,89.01,29.77,13.21,7.98,19.06,44.12,34.79,20.26,40.88,51.7,53.13,47.04,8.59,33.59,69.79,36.45,30.23,3.68,14.81,13.48,32.39,36.49,59.36,19.48,35.88,60.28,4.39,28.82,98.85,11.13,198.57,33.01,40.56,39.92,41.39,16.44,33.8,41.47,54.31,45.52,68.39,47.26,17.69,49.62,55.84,26.68,17.16,34.6,14.3,6.02,61.58,6.04,52.83,33.02,55.07,24.27,130.3,9.65,188.72,53.54,10.64,30.27,58.2,490.8,21.19,24.3,21.33,39.34,10.28,64.27,23.8,50.97,34.13,18.55,46.79,7.87,74.55,18.07,32.77,48.67,48.92,21.58,65.08,87.69,34.44,25.28,20.85,29.42,20.5,45.72,40.2,21.64,30.8,81.32,39.9,37.7,24.46,40.59,81.77,35.2,25.44,46.99,36.18,31.67,12.13,41.57,32.52,57.11,83.29,86.32,69.95,25.44,37.9,41.14,31.17,31.94,6.57,28.06,39.92,25.85,85.4,66.02,38.96,13.83,55.19,45.24,43.01,23.25,14.23,22.3,66.08,31.3,56.79,16.31,30.18,43.42,65.34,46.31,23.62,30.6,42.73,52.04,70.11,36.52,43.1,62.38,18.85,37.5,13.44,86.1,82.76,47.99,36.73,30.17,18.34,38.06,52.33,77.01,33.34,29.9,20.63,21.21,41.9,10.48,17.82,67.93,26.88,114.99,65.43,22.48,42.3,84.69,38.35,49.36,96.74,12.19,36.9,56.96,105.71,25.83,100.35,156.36,665.12,24.54,61.37,17.29,31.64,48.35,29.63,135.94,11.31,78.63,27.31,57.62,24.48,56.31,146.58,62.86,51.75,56.73,6.82,27.03,41.57,26.25,65.85,48.6,102,66.27,34.66,37.75,13.25,33.18,40.67,44.76,69.91,12.5,56.94,29.27,13.14,65.19,132.1,69.17,142.46,5.39,72.68,64.89,42.75,9.11,30.55,27.4,4.34,36.3,63.56,12.05,42.27,51.64,38.94,91.42,51.07,23.37,16.22,27.05,57.88,58.81,32.17,16,18.64,72.15,14.77,31.55,26.52,25.96,20.79,29.02,55.74,54.18,84.92,38.14,44.16,33.47,22.89,60.14,38.01,26.78,13.83,59.01,70.94,22.51,72.78,49.18,18.14,30.4,31.31,24.53,55.72,60.73,45.87,40.51,35.89,46.99,128.77,78.05,38.51,70.35,33.89,48.3,32.13,77,52.39,31.73,39.57,16.21,21.85,66.94,45.21,7.8,37.73,15.17,50.34,84.38,26.81,6.63,31.56,20.41,23.21,16.04,64.32,58.48,18.64
86.89,30.27,28.72,57.35,69.35,79.55,32.37,4.02,11.18,36.09,43.02,28.16,36.84,78.24,79.44,36.34,8.38,105.1,30.31,84.87,36.38,35.27,31.18,236.56,31.07,37.99,56.11,32,68.27,51.49,38.02,78.19,30.14,69.43,37.45,49.57,86.05,24.6,28.11,84,11.21,24.42,34.7,33.39,35.25,47.42,39.16,367.47,131.65,29.56,15.35,46.95,40.61,7.6,96.38,55.47,29.63,72,63,28.52,84.67,18.66,146.18,163.92,14.84,15.07,70.48,34.62,104.35,5.33,30.26,33.16,60.16,23.49,14.58,21.34,52.09,30.64,54.79,37.73,24.35,28.94,31.95,82.27,18.07,34.86,35.72,19.31,36.22,36.29,200.18,50.92,17.68,103.89,304.41,69.12,43.44,35.05,38.53,16.01,28.83,74.36,40.6,66.04,47.16,21.98,52.68,37.39,28.35,31.9,49.9,33.22,29.32,24.57,23.04,51.51,29.88,58.48,29.67,10.9,87.25,5.27,48.75,61.18,21.66,96.84,42.64,52.98,48.19,48.5,10.94,74.79,28.33,15.66,37.74,57.2,58.89,49.57,35.64,27.53,52.72,51.97,49.58,44.52,27.82,42.18,55.74,61.54,71.68,8.06,46.89,52.8,42.28,45.61,62.91,41.85,101.11,12.79,26.29,46.75,51.28,64.65,53.71,55.79,45.34,56.76,53.39,34.17,57.67,34.64,56.02,82.17,101.62,63.68,41.2,88.71,29.68,13.45,8.14,20.68,41.28,34.71,20.56,41.44,52.04,54.19,47.49,8.74,33.63,91.77,37.44,31.05,3.73,15.55,13.61,32.58,37.12,60.23,19.62,35.74,60.74,4.5,28.77,100.03,11.39,200.17,33.57,40.98,40.62,42.2,16.48,34.12,40.81,53.07,46.25,68.36,48.38,17.95,50,55.78,26.71,17.39,34.8,14.3,6.17,62.96,6.04,53.74,33.74,54.89,24.45,130.37,9.95,189.83,54.21,10.77,30.66,58.34,496.76,21.74,24.62,21.73,39.32,10.5,63.76,24.82,53.5,34.8,18.97,46.96,7.89,73.67,17.91,33,49.37,48.74,21.6,65.64,87.91,35.52,25.18,21.07,30.08,21.08,46.33,39.32,21.94,31.01,82.53,40.06,36.72,25,41.25,82.14,35.35,26.1,48.03,36.93,32.35,12.43,41.22,32.61,57.08,82.66,87.05,70.27,25.65,38.38,40.69,31.98,32.17,6.82,28.35,40.49,26.02,85.54,68.86,39.55,14.19,55.95,46.19,43.48,23.25,14.5,22.53,67.14,32.65,57.9,16.55,31.67,43.9,64.84,46.62,23.51,30.89,43.53,52.78,70.34,36.44,43.77,63.22,18.8,37.92,13.57,87.21,85.09,48.25,36.59,30.66,18.22,38.53,53.09,78.68,33.49,30.02,20.92,21.24,42.29,10.67,17.33,67.75,27.55,114.25,66.14,21.99,41.63,83.85,38.06,48.78,98.44,12.4,37.01,57.56,107.27,25.61,102.26,159.37,679.8,24.8,61.75,17.56,31.49,49.48,29.43,135.21,11.52,84.01,28.07,58.78,24.56,56.78,149.48,64.91,52.12,57.82,6.78,26.94,40.77,26.66,67.24,48.89,102.07,66.54,34.9,38.06,13.14,34.17,41.26,44.45,71.07,12.81,57.42,29.9,13.26,64.94,135.39,69.96,140.35,5.46,72.89,65.56,42.52,8.94,31.75,27.34,4.31,37.08,64.96,12.26,44.05,51.85,39.73,90.35,51.13,23.63,16.5,26.8,58.82,59.05,32.85,15.9,20.32,73.8,15.25,33.14,27.45,26.67,21.35,29.23,56.3,55.79,84.98,38.45,44.16,33.47,23.01,60,38.66,27.14,14.41,58.95,71.38,22.68,74.18,50.66,18.34,30.96,31.39,24.9,56.66,59.51,45.84,40.32,36.32,47.26,128.15,76.22,39.39,70.07,34.11,48.46,32.19,78.68,53.95,31.69,40.05,16.45,22.15,67.74,45.01,7.97,37.19,15.32,50.71,88.56,26.51,6.74,32.17,20.49,23.32,16.22,64.12,59.71,18.86
86.83,30.21,29.61,58.15,69.44,78.94,32.51,4.4,11.36,36.48,43.24,28.44,36.99,78.9,79.83,36.18,8.58,104.72,30.73,85.21,36.51,35.17,31.23,234.38,31.09,38.65,56.38,32.02,67.81,51.73,37.4,78,29.95,68.69,37.61,50.05,86.34,24.3,28.22,83.86,11.26,25.15,34.65,33.38,35.31,47.63,39.52,363.82,129.81,29.69,15.54,46.28,40.49,7.6,96.42,55.13,29.56,72.08,64.17,28.28,84.65,18.63,145.05,163.6,14.89,15.13,70.62,34.28,102.74,5.38,29.85,32.84,59.53,23.52,14.66,21.09,51.89,31.11,54.82,37.82,24.4,28.91,31.64,82.27,17.8,34.86,35.88,19.38,36.37,36.17,201.5,51.07,18.16,104.06,298.05,69.42,43.82,35.17,38.7,16.03,28.8,73.24,40.89,66.45,47.06,21.99,53.14,37.29,28.36,32.2,50.08,33.18,29.43,28.43,23.02,52.17,30.34,58.11,29.79,10.98,87.35,5.05,48.48,61.06,21.63,96.83,44.04,52.94,48.52,48.62,15.38,74.98,27.98,15.96,38.05,57.57,58.67,49.85,35.84,27.58,52.1,52.95,49.3,44.94,27.69,42.41,55.65,61.53,71.65,8.02,46.84,52.34,42.95,44.94,62.62,41.9,100.29,12.94,26.16,46.93,50.55,65.35,53.3,55.45,44.94,56.23,53.34,34.34,55,35.37,60.73,82.51,101.1,63.89,40.58,88.21,29.65,13.51,8.2,21.41,41.05,35.08,20.45,41.69,52.85,53.66,47.5,8.78,33.4,87.41,37.24,31.35,3.77,15.47,13.83,33.25,37.35,60.26,19.51,35.8,60.79,4.61,28.41,99.31,11.5,198.49,33.79,40.32,40.81,42.4,16.39,34.34,40.77,52.95,46.01,68.5,48.97,18.37,50.38,56.12,27.1,17.7,34.59,14.26,6.23,65.85,6.05,54.08,34.16,54.94,24.54,130.55,9.88,189.78,59.47,10.67,30.21,58.2,501.22,21.74,24.73,21.7,39.6,10.59,63.82,24.35,54.58,34.94,18.69,47.34,7.97,74.14,17.72,32.74,49.49,48.96,21.82,66,89,35.37,25.14,21.31,30.42,21.07,46.7,39.41,22.03,30.92,83.06,39.94,36.84,25.43,41.69,81.85,36.32,26.27,47.1,36.07,32.22,12.62,42.02,32.8,57.44,81.28,87.02,70.46,25.29,38.53,40.74,32.06,32.2,6.89,28.41,41.47,26.16,84.95,67.77,38.57,14.25,55.83,45.96,43.52,23.18,14.97,22.42,66.78,32.19,57.8,16.55,31.52,44.17,64.79,46.49,23.59,30.47,43.96,53,70.19,36.41,43.84,63.83,19.47,37.81,13.65,86.7,85.47,48.63,36.44,30.33,18.24,38.53,53.54,78.23,33.44,30.35,20.74,21.4,41.86,10.74,17.36,68.02,27.53,114.65,66.42,22.08,41.04,84.26,38.42,48.77,99.29,12.45,36.93,57.82,107.44,26.19,103.15,159.23,562.32,24.63,62.21,17.46,31.19,49.74,29.52,134.8,11.9,84.3,27.76,58.88,24.76,57.52,147.84,64.82,52.14,58.28,6.74,26.89,40.86,26.56,66.91,48.85,102.86,66.72,35.03,38.4,13.44,33.89,40.89,44.27,71.12,12.69,57.6,29.95,13.25,64.41,137.36,70.6,139.55,5.47,73.41,65.83,42.33,8.95,31.86,26.94,4.61,36.86,64.69,12.28,44.03,50.71,39.79,89.67,51.12,23.71,16.44,26.83,57.99,59.33,33.24,16,20.84,74.44,15.27,33.61,27.57,26.38,21.61,28.92,56.45,56.08,85.22,38.79,44.12,33.04,22.92,60.41,36.77,26.95,15.58,58.35,71.09,22.81,73.57,50.85,18.29,30.91,31.32,25.07,56.62,58.14,46.5,40.05,35.94,47.27,128.89,75.02,39.01,70.76,34.31,49.12,32.12,79.27,55.08,31.76,40.15,16.5,21.9,68.52,44.91,7.8,37.08,15.17,49.74,88.62,26.44,6.77,32.1,21.84,23.23,16.17,63.62,59.77,18.84
86.79,30.13,30.83,57.92,69.27,79.31,32.65,4.37,11.4,36.41,43.16,28.54,36.78,79,80,36.21,8.64,103.63,30.9,85.13,36.33,35.5,30.97,234.06,31.07,39.58,54.97,32.15,68.04,51.6,37.39,78.57,29.9,68.57,37.78,50.2,86.51,24.26,28.45,84.33,11.23,25.14,34.71,33.2,35.17,47.36,39.56,363.12,129.52,29.65,15.75,47.16,40.8,7.65,96.2,55.16,29.66,72.03,63.56,28.14,84.54,18,143.09,164.65,15.01,15.16,70.31,34.59,102.49,5.5,29.54,33.25,59.11,23.67,14.51,21.64,51.95,31.02,54.81,38.24,24.57,29.03,31.56,83.39,17.8,34.78,35.62,19.29,36.82,35.85,206.78,50.97,18.54,104.52,297.2,69,43.83,35.14,38.6,16.53,28.8,75.55,41.52,66.54,47.56,21.84,51.9,37.14,28.17,32.22,49.93,33.22,29.48,29.37,23.1,52.1,32.28,57.84,29.85,10.96,87.11,5.05,48.19,61.03,21.48,97.1,43.51,52.65,48.19,48.14,14.72,74.51,28.23,15.53,38.07,58.51,59.41,50.5,35.3,27.55,51.35,51.66,49.26,45.1,27.64,41.98,55.21,61.57,74.03,8.57,47.06,52.62,43.09,44.27,62.96,42.12,98.3,13.12,26.37,47.23,50.54,64.6,54.04,56.51,44.27,55.69,54.21,34.68,54.82,35.35,62.51,82.97,103.21,62.59,40.51,87.57,29.68,13.53,8.07,21.7,40.97,35.01,20.45,41.71,53.07,53.22,47.72,8.77,33.47,86.55,37.13,31.69,3.9,15.56,13.93,33.04,37.77,59.79,19.56,35.92,60.29,4.8,28.45,100.38,11.56,197.37,34.21,40.31,41.12,42.8,16.62,34.65,40.83,53.59,46.85,68.47,48.54,18.37,50.72,56.16,27.18,18.19,34.35,14.32,6.26,65.07,6.08,54,34.56,52.83,24.63,131.24,10.28,189.2,58.56,10.56,30.16,57.69,497.56,22.19,24.72,21.7,39.66,10.77,63.79,24.71,55.14,34.72,19.32,47.43,7.96,73.78,17.81,32.44,50.01,48.35,21.63,66.61,88.44,35.37,25.17,21.23,31.19,21.06,47.03,39.29,22.55,31.07,82.74,39.95,36.93,25.9,41.82,81.89,36.42,26.28,46.46,36.12,32.1,12.64,42.17,32.66,57.25,80.93,87.24,70.45,25.58,38.15,40.94,32.29,32.14,6.81,28.57,41.54,26.15,85.55,61.2,38.35,14.39,56.45,45.68,43.39,23.3,15.39,22.43,67.34,31.37,57.91,16.38,32.38,44.43,64.28,46.09,23.55,30.82,43.92,52.64,69.61,36.18,43.93,64.35,20.09,37.92,14.11,85,84.87,48.8,36.45,30.53,18.58,38.79,53.11,78.5,33.16,30.35,22.04,22.1,41.39,10.76,17.37,67.61,27.49,114.34,66.56,22.12,41.28,83.91,38.59,48.75,99.73,12.22,36.77,57.56,107.69,26.57,103.14,161.27,562.26,24.62,62.22,17.54,31.01,49.86,29.54,133.55,12.47,83.84,28.01,59.41,24.58,57.14,144.99,65.83,52.34,57.83,6.79,26.9,40.5,27.04,68.11,48.57,102.6,66.24,35.31,38.62,13.64,34.44,40.78,44.26,71.77,12.68,58.24,30.36,13.34,64.4,137.68,70.75,138.29,5.45,73.41,65.66,42.23,8.89,32.82,26.89,4.8,37.2,64.05,12.27,43.86,51.25,40.21,89.06,50.93,24.02,16.34,26.65,58.22,59.09,33.33,16.14,21,75.12,15.39,34.02,27.74,26.65,21.34,28.9,56.1,56.39,84.91,39.01,44.03,32.44,22.92,60.49,36.18,26.99,15.44,58.01,71.32,23.04,73.14,50.16,18.52,30.87,31.33,25.16,56.43,57.88,46.6,40.2,35.76,47.93,126.29,73.56,39.74,70.32,34.17,48.6,32.13,78.56,54.45,31.76,41.27,16.48,21.83,68.09,45.37,7.22,36.76,15.61,49.2,87.6,26.31,6.81,32.1,22.14,23.54,16.01,63.64,59.58,18.85
87.45,30.31,30.65,57.99,68.91,79.86,32.64,4.34,11.42,36.6,43.31,28.35,36.82,78.71,80.11,35.97,8.75,103.42,30.96,85.25,36.26,35.74,31.19,232.75,31.32,39.75,54.37,32.24,68.26,51.73,37.39,79.3,29.98,68.59,37.85,50.57,85.88,24.19,28.61,84.47,11.29,24.64,34.34,33.44,35.01,47.74,39.58,359.29,130.4,29.83,15.6,47.42,41.07,7.67,97.04,55.21,29.53,72.4,62.78,28.44,84.77,18.02,145.51,164.3,15,15.25,70.25,35.25,102.66,5.54,29.5,34.24,59.5,23.8,14.41,21.34,52.29,31.16,54.38,38.31,26.29,28.99,31.6,83.9,17.77,34.9,35.97,19.35,37.02,35.56,202.39,51.38,17.96,105.37,295.39,69.11,43.77,35.24,38.78,16.38,28.84,76.26,41.46,66.88,47.63,21.99,51.68,36.93,28.06,32.49,50.13,33.39,29.64,30.15,23.16,52.27,32.07,58.09,29.94,10.94,87.05,5.05,48.74,61.56,21.79,97.12,43.45,53.14,47.96,48.34,14.65,75.17,27.84,15.65,38.13,57.99,59.16,52.1,35.6,27.89,51.77,50.72,49.34,45.6,27.52,41.99,55.47,61.36,76.03,8.42,47.57,52.48,43.7,43.99,63.75,42.24,98.17,13.08,26.35,48.12,50.11,65.03,54.33,55.38,44.44,55.65,54.57,34.99,53.33,35.63,61.92,83.2,102.23,61.44,39.82,86.72,29.7,13.5,8.09,21.43,41.02,34.94,20.48,41.79,52.39,53.59,48.11,8.78,33.76,86.47,37.15,31.96,3.93,16.41,13.93,32.84,38.09,59.93,19.6,36.01,60.18,4.84,28.39,99.82,11.61,193.73,34.35,40,44.19,42.87,16.72,34.82,40.72,53.47,47.9,68.94,48.63,18.65,50.63,56.19,27.22,17.8,34.15,14.39,6.3,65.83,6.13,54.49,34.83,52.47,24.8,131.54,10.25,190.03,58.92,10.8,30.35,57.62,498.58,22.3,24.99,21.86,39.34,10.9,64.09,24.9,55.62,34.76,19.16,47.64,7.97,73.76,17.85,31.38,50.07,47.96,21.62,66.6,88.5,35.35,24.93,21.18,30.9,21.03,47.59,40.1,22.26,31.18,83.18,39.99,37.04,25.77,41.76,81.76,36.31,26.57,47.19,35.78,32.27,12.51,42.18,32.86,57.43,81.9,87.69,70.25,25.85,38.4,41.21,32.59,32.32,6.76,28.5,41.67,26.05,83.74,54.27,38.36,14.29,56.31,46.03,43.27,23.46,14.99,22.5,67.67,31.8,59.9,16.13,32.11,44.7,64.79,45.81,23.49,30.96,44.46,53.65,70.43,36.54,43.97,64.44,20.07,38,14.02,84.62,85.71,49.08,36.53,30.76,18.46,39.29,53.41,79.79,34.01,30.59,22.25,23.4,41.29,10.74,17.53,67.6,27.35,114.73,66.49,22.18,41.14,84.67,38.28,48.82,98.16,12.13,36.88,57.53,107.16,26.9,103.33,161.41,563.16,24.73,62.26,17.52,30.96,49.99,29.76,134.31,12.28,83.6,27.78,59.39,24.78,56.85,146.68,65.82,52.48,57.04,6.82,26.94,41.06,27.14,68.05,48.22,103.47,65.62,35.33,38.88,13.38,34.96,40.6,44.56,72.75,12.55,58.74,31.66,13.32,64.54,137.98,70.43,138.86,5.49,73.29,66.03,42.33,8.92,32.04,27.2,4.92,36.75,64.63,12.36,44.31,50.11,40.25,89.82,51.19,24.15,16.61,26.79,58.13,59.23,33.64,16.22,20.88,75.7,15.49,34.19,27.94,26.67,21.3,29.12,56.22,56.25,85.29,39.33,43.5,32.78,22.89,60.58,35.1,27.14,15.65,58.35,71.58,23.03,73.96,50.05,18.6,30.66,31.45,25.37,56.85,57.97,46.76,40.43,35.32,47.59,126.86,73.45,39.63,70.16,34.25,48.3,32.27,78.65,55.53,31.77,42.19,16.5,21.92,68.68,45.03,7.31,36.94,15.43,49.21,87.86,26.43,6.82,32.09,22.03,23.53,15.15,63.85,60.04,18.69
87.56,30.25,31.09,57.87,68.63,79.89,32.27,4.26,11.5,36.36,43.34,28.25,36.71,78.62,80.02,35.74,8.61,103.68,30.46,85.23,36.22,35.36,31.41,232.44,31.33,39.66,54.64,32.75,68.94,51.56,37.29,78.82,30.36,67.43,37.94,50.64,85.98,24.15,28.34,85.59,11.16,24.63,33.44,33.35,34.68,47.38,39.41,355.31,129.32,29.64,15.4,46.73,41.08,7.65,96.88,55.12,29.57,72.71,63.54,28.57,84.99,18.27,144.54,164.8,15.1,15.16,70.23,35.5,102.94,5.51,29.35,34.01,59.54,23.54,14.4,20.93,51.87,32.13,53.88,38.04,26.93,28.86,31.54,83.59,17.6,34.93,35.92,19.07,37.09,35.6,203.14,51.74,17.4,105.12,292.77,68.8,43.42,35.26,38.65,16.19,28.72,75.98,40.54,66.85,47.55,21.87,52.73,36.84,27.81,32.47,50.22,33.22,29.63,30.24,23.09,52.3,31.64,58.11,29.75,10.89,87.35,5.05,48.78,61.64,21.69,96.56,43.2,53.59,47.97,48.19,14.75,75.54,28,15.16,38.02,57.14,59.09,52.1,35.56,27.65,52.54,50.15,49.1,45.32,27.26,41.68,55.2,61.69,76.14,8.51,47.17,52.34,43.51,45.32,63.53,42.06,97.86,12.87,26.11,48.03,51.1,64.63,53.99,55.18,44.08,55.24,53.97,34.9,52.73,35.87,61.66,82.91,100.72,61.83,39.93,86.69,29.64,13.53,8.15,20.49,41.02,35.4,20.2,41.78,52.34,53.33,47.67,8.83,33.95,85.54,36.99,31.23,3.99,16.55,14.1,33.24,37.76,59.7,19.5,35.89,60.13,4.83,28.32,100.39,11.69,194.25,34.2,40.04,44.17,42.95,16.67,34.84,40.69,53.33,46.41,69.08,48.05,18.57,50.4,55.91,27.13,17.95,33.74,14.38,6.27,65.18,6.13,54.77,34.79,52.33,24.62,132.01,10.15,189.76,58.83,10.83,31.57,56.9,508.31,22.33,24.92,21.8,39.18,11.06,63.92,24.92,54.28,34.78,18.84,47.38,7.89,73.46,17.95,31.46,49.91,47.61,21.67,65.55,88.47,35.08,24.91,21.25,30.93,20.71,46.94,39.82,22.27,31.19,83.27,39.94,37.29,25.56,41.83,81.48,36.19,26.24,47.19,35.77,32.11,12.38,42.14,32.8,57.3,81.63,87.72,70.21,25.89,38.4,41.07,32.59,32.27,6.72,28.47,41.21,26.1,83.89,53.27,38.01,14.24,55.34,45.33,42.68,23.49,15.45,22.52,66.89,31.05,59.91,16.18,31.81,44.17,64.32,46.47,23.26,30.96,44.04,53.54,70.17,36.27,43.98,64.6,19.89,37.42,14.21,84.95,84.44,48.83,36.28,30.52,18.35,39.19,53.24,79.29,34,30.55,21.99,22.67,40.96,10.75,17.54,67.47,27.34,114.29,66.58,21.98,41.1,84.87,38.42,48.6,97.13,12.11,37,57.23,106.5,26.9,102.89,160.26,562,24.89,61.99,17.51,30.74,49.92,29.55,133.59,12.24,84.65,26.81,59.5,24.56,57.05,149.47,66.29,52.53,56.39,6.81,26.83,41.1,27.28,68.54,48.07,103.69,66.13,35.01,39.1,13.49,36.29,40.11,44.49,72.61,12.57,59.65,31.68,13.03,64.14,137.53,70.04,138.4,5.49,74.45,66.01,42.2,8.97,31.61,27.12,5.05,36.53,64.19,12.31,44.83,50.01,40.19,89.77,51.32,24.21,16.55,27.99,58.27,59.26,33.56,16.18,21.2,75.98,15.42,37.44,27.74,26.78,21.29,29.05,56.14,56.09,85.6,39.12,43.28,32.89,22.99,60.34,33.52,27.07,15.25,58.2,71.44,22.48,73.56,50.05,18.55,30.49,31.47,25.02,57.75,57.82,47.49,40.13,35.86,47.5,126.11,74.25,39.27,69.89,34.06,48.51,32.23,78.02,54.55,31.9,42.51,16.37,22.09,68.57,45.05,7.31,36.69,14.9,48.84,86.39,26.33,6.83,32.04,21.79,23.57,15.02,63.99,60.05,18.55
87.46,30.33,30.96,57.64,68.5,80.18,32.11,4.12,11.35,35.86,43.03,28.32,36.99,78.49,79.39,35.44,8.47,104.03,30.34,86,35.81,34.74,31.61,233.19,31.27,39.58,54.59,33.45,69.1,51.58,37.01,80.43,30.39,67.96,37.71,50.97,86.07,24.18,28.05,85.82,11.06,24.69,32.85,33.22,34.16,47.89,39.58,357,128.75,29.54,15.57,46.07,41.07,7.71,96.52,55.46,29.52,72.57,63.07,28.71,84.94,18.15,145.5,162.97,15.13,15.18,69.87,34.8,102.53,5.46,29.5,33.33,59.76,23.64,14.41,21.17,51.61,32.31,53.44,37.84,26.69,28.81,31.54,82.89,17.52,35.2,35.56,19.05,36.99,35.74,202.54,52.32,17.53,105.16,296.83,68.82,43.59,35.38,38.6,16.03,28.71,75.47,39.38,67.51,46.73,21.84,51.21,36.92,27.85,32.15,50.16,33.03,29.51,30.17,22.91,52.33,30.98,58.03,30.68,10.89,87.38,4.96,48.94,62,21.77,96.73,42.64,53.24,48.46,48.94,14.51,75.89,27.93,15.24,37.98,56.89,58.71,51.91,35.48,27.15,52.31,50.62,49.14,45.31,27.47,41.94,55.01,61.67,76.86,8.67,47.09,51.49,43.33,45.36,63.22,42.53,97.57,12.71,25.1,48.65,50.72,64.45,54.51,54.74,44.26,54.83,58.99,34.67,51.24,35.97,60.97,82.97,96.99,61.02,40.01,86.5,29.77,13.47,8.23,20.04,41.26,35.38,20.16,41.55,52.02,52.77,47.59,8.87,33.98,84.56,37.21,30.82,3.96,15.98,14.18,33.22,37.44,60.13,19.45,35.82,59.46,4.89,28.78,100.05,11.52,194.17,34.02,39.83,43.29,42.82,16.6,34.9,40.68,53.33,46.1,69.5,48.53,18.33,52.21,55.64,27.31,18.04,33.82,14.29,6.24,64.93,6.12,54.38,34.55,52.37,24.43,130.87,10.13,189.08,58.61,10.88,31.73,56.64,509.86,22.23,24.79,21.6,39.49,10.68,64.09,25.02,53.04,34.89,17.99,47.48,7.86,73.86,17.95,31.5,49.29,47.69,21.59,65.55,88.57,34.65,24.68,21.27,30.98,20.62,46.69,39.75,22.9,31.33,83.48,39.97,37.35,25.55,41.99,81.33,36.54,26.24,47.11,35.51,32.15,12.52,42.38,32.87,57.08,81.83,87.54,70.25,25.86,38.31,41.06,32.6,32.5,6.55,28.41,40.97,26.04,83.21,58.59,37.76,14.08,55.47,45.58,42.56,23.4,15.78,22.33,66.71,30.67,61.76,16.04,31.95,43.62,64.6,46.01,23.38,30.67,43.8,53.94,69.99,36.14,44.08,64.31,20.12,36.99,14,84.64,84.29,48.63,36.22,30.51,18.28,39.06,52.53,78.68,34.01,30.4,21.34,22.98,40.7,10.71,17.47,67.71,27.05,115.81,65.91,22.22,41.18,85.52,38.21,48.67,97.05,12.03,37.22,57.24,104.9,26.73,102.5,159.67,564.66,24.86,62.22,17.56,30.95,49.66,29.59,132.96,12.5,85.02,26.55,59.78,24.55,56.75,148.69,65.91,52.48,55.13,6.87,26.78,41.58,27.06,69,47.52,103.48,65.99,34.78,38.94,13.5,35.64,39.74,44.61,71.9,12.52,58.12,31.54,13.02,64.82,137.9,69.77,138.73,5.47,74.38,65.94,42.04,8.87,31.3,27.34,4.99,36.72,63.1,12.4,45.14,49.7,39.64,90,51.89,24.29,16.51,28.28,58.23,60.09,33.38,16.27,21,75.48,15.18,37.17,27.68,26.64,21.2,29.39,55.87,56.93,86.41,38.88,44.06,32.78,22.84,60.16,33.16,26.98,15.34,58.2,71.46,22.27,73.85,50.11,18.56,30.32,31.32,25.18,57.17,57.87,46.97,40.19,35.8,47.44,127.65,74.49,38.98,70.47,33.81,48.34,32.42,77.33,54.56,31.9,42.2,16.48,22.07,68.37,44.92,7.38,36.69,14.95,48.57,85.88,26.34,6.82,31.76,22.11,23.14,14.73,63.3,60.15,18.63
87.69,30.45,33.73,57.23,69.07,79.83,32.91,4.19,11.31,36.52,43.42,28.32,36.86,78.56,79.46,36.8,8.51,105.35,29.98,85.98,36.17,34.83,31.34,237.42,30.99,39.39,55.16,33.66,68.93,51.62,36.74,80.54,30.31,67.98,37.85,51.22,85.76,24.25,28.15,85.71,11.15,25.11,32.93,33.09,34.48,47.93,39.53,357.86,129.94,29.38,15.58,45.96,41.69,7.8,97.15,55.78,29.83,72.67,63.56,28.6,84.71,18.16,146.87,165.82,15.15,15.31,69.58,34.96,103.25,5.53,29.64,33.62,60.02,23.69,14.29,20.99,51.87,32.4,53.35,37.87,26.79,29.3,31.25,82.64,17.56,35.27,35.46,19.01,36.6,36.74,205.86,52.96,17.35,105.3,297.98,68.85,43.81,35.53,39.22,16.2,28.68,75.06,38.96,67.08,46.79,21.63,52.45,36.89,27.86,31.86,50.19,32.87,29.85,30.17,23,52.23,31.12,57.55,31.65,10.96,88.11,4.65,48.81,62.43,21.81,96.6,42.74,53.23,48.42,49.06,14.5,71.12,27.78,15.34,38.55,56.55,58.52,51.53,35.61,27.18,51.76,50,49.43,45.34,27.46,42,55.22,61.07,79.11,8.53,47.22,51.89,43.3,44.98,63.51,42.56,98.18,13.09,24.84,48.75,50.8,63.32,54.24,54.85,44.48,55.05,59.78,34.43,51.83,36.33,60.85,82.78,99.29,61.55,40.64,88.45,29.53,13.5,8.27,21.1,41.24,35.58,20.24,41.53,52.31,53.54,47.26,8.91,33.88,87.12,37.71,30.6,3.93,15.77,13.95,33.22,37.34,60.51,19.47,35.75,59.55,4.99,28.99,99.92,11.51,195.32,33.75,40.07,43.59,43.09,16.85,34.97,40.59,53.43,45.72,69.31,48.19,18.26,52.48,55.68,27.46,17.82,33.88,14.49,6.32,65.93,6.15,54.76,35.01,51.69,24.24,131.09,10.23,189.18,58.92,10.94,31.94,57.79,517.31,22.38,24.77,21.84,40.14,11.56,63.82,25.13,52.93,34.86,18.36,47.63,7.87,73.94,18.1,31.25,49.53,47.99,21.34,65.51,88.5,34.71,24.65,21.26,31.03,20.8,47.47,39.98,22.9,31.38,83.62,39.92,37.38,25.83,42.19,81.77,36.83,26.34,47.68,35.64,32.24,12.73,42.28,32.74,57.06,81.54,87.42,70.17,25.9,38.46,40.74,32.42,32.59,6.49,28.48,41.33,25.91,83.64,58.78,37.8,14.26,56.16,45.46,42.99,23.62,15.76,22.44,67.02,30.99,63.26,16.03,32.34,43.9,64.26,45.68,23.32,30.48,43.73,54.01,70.58,36.02,44.23,64.24,20.08,36.88,13.89,84.95,83.49,48.61,36.22,30.71,18.35,39.25,53.05,78.26,34.38,30.28,20.93,23.67,40.93,10.83,17.3,68.06,27.1,115.82,65.86,22.27,40.84,85.37,38.62,48.67,98.62,11.94,37.2,57.75,105.82,26.7,103.14,159.99,575.31,24.8,62.14,17.63,31.07,50.09,29.67,133.63,12.57,86.53,26.38,59.91,24.77,56.66,148.98,66.32,52.6,55.72,6.87,26.84,41.57,27.34,68.46,47.62,103.71,66.93,35.23,39.3,13.41,36.03,40.75,44.27,71.32,12.72,57.94,31.6,12.9,64.78,135.36,70.19,139.81,5.54,75.46,65.53,41.85,8.88,31.8,27.33,5.39,36.88,63.33,10.59,46.77,49.92,39.76,90.13,52.2,24.34,16.99,28.47,58.77,61.15,33.55,16.08,20.88,75.4,15.33,37,28.08,26.64,21.17,29.59,56.7,57.15,85.62,39.13,44.05,32.92,22.91,60.36,33.96,27.03,15.29,59.17,71.84,22,74.56,50.93,18.6,31.24,31.46,25.08,58.76,58.13,47.69,40.06,35.78,47.79,127.05,74.86,38.99,70.89,33.93,48.54,32.53,78.33,55.42,31.9,42.37,16.44,22.21,68.61,45.27,7.45,36.64,14.58,48.79,86.46,26.21,6.88,31.98,22.19,23.36,14.76,62.97,60.51,18.97
88.83,30.45,33.9,57.54,69.35,79.71,33.65,4.17,11.43,37.03,43.66,25.99,36.81,79.59,80.63,37.81,8.55,103.61,30.91,86.12,36.03,35.33,31.58,241.55,30.52,39.47,55.85,34.23,68.78,52.14,36.32,80.01,30.61,69.86,38.24,51.76,86.64,24.54,28.7,86.46,11.32,25.17,32.97,33.21,34.67,48.42,39.88,358.55,130.81,29.9,15.46,46.08,42.17,7.85,96.82,55.29,29.74,72.4,65.55,28.92,85.22,19.14,146.84,166.94,15.35,15.68,70.12,35.27,103.85,5.51,29.68,34.89,60.04,24,14.01,21.55,53.17,32.55,54.5,37.93,26.9,29.76,31.55,83.57,17.9,35.24,35.12,18.93,36.34,36.88,210.31,53.69,17.37,106,299.79,69.22,44.44,36.13,39.04,17.76,28.76,76.85,39.71,67.21,47.53,21.57,53.57,37.08,28.03,32.46,50.35,32.82,29.71,30.87,23.01,52.52,31.42,56.75,31.93,11.11,88.12,4.72,49.1,61.75,21.99,98.57,43.25,53.05,48.85,49.15,14.43,71.51,28.65,15.55,38.57,57.03,58.87,51.5,36.54,27.1,51.22,49.11,49.55,46.26,27.81,41.88,55.36,60.99,80.39,8.55,47.48,52.74,43.61,45.79,65.15,42.33,97.8,13.81,25.64,49.29,51.6,63.11,54.82,55.73,45.03,55.23,60.13,34.16,51.16,37.21,60.89,83.41,104.05,62.43,41.04,88.64,29.55,13.54,8.37,21.49,41.13,35.74,20.29,42.29,53.24,54.54,47.78,9.01,33.96,87.79,38.28,31.08,3.86,16.63,14.34,32.96,37.5,61.61,19.55,35.88,60.08,5.17,28.34,100.27,11.64,198.9,34.46,41.02,44.52,43.21,17.08,35.45,40.58,53.93,46.64,68.96,48.95,18.48,53.73,56.32,27.31,18.62,33.85,14.72,6.36,66.14,6.15,56.73,35.77,51.22,24.53,133.88,10.57,191.51,59.71,11.21,32.45,58.64,514.95,22.63,24.75,22.3,40.88,11.84,63.68,25.75,54.4,34.89,18.51,47.76,7.96,74.32,18.31,31.23,50.25,48.3,21.37,65.79,89.1,35,24.87,21.64,32.1,21.06,47.31,39.77,23.29,31.58,84.12,40,38.6,26.42,42.85,81.93,37.02,26.22,47.67,36.63,32.4,13.3,42.42,32.87,57.12,81.22,87.31,70.33,26.35,38.6,40.63,32.23,32.83,6.61,29.02,41.76,25.91,85.26,60.26,38.14,14.27,57.4,46.1,43.38,23.74,15.96,22.56,68.41,32.19,64.31,16.35,32.96,44.8,64.59,45.95,23.16,31.05,44.36,54.06,70.55,35.79,44.89,64.72,20.19,37.25,14.18,87.21,83.7,48.79,36.35,31.17,18.75,39.85,53.26,79.48,34.53,30.68,21.43,24.31,41.51,10.92,17.28,68.96,26.84,108.2,68.88,22.25,40.29,85.66,39.41,48.75,99.93,12.02,37.38,58.3,106.41,26.52,103.84,161.71,586.79,25.18,62.48,17.56,31.47,50.38,29.45,134.68,13.38,87.31,26.4,59.95,25.08,57.35,148.87,68.59,52.77,58.24,6.96,27,41.66,27.85,69.82,48.29,104.5,66.89,35.48,39.91,13.44,36.74,41.87,44.23,72.4,12.97,57.43,32.07,13.18,64.44,136.1,70.65,141.58,5.48,75.46,67.54,41.56,8.93,32.62,27.24,5.15,35.26,64.06,10.49,47.06,51.07,39.98,91.51,52.58,24.57,17.29,28.23,59.78,60.59,34.03,16.12,21.16,75.67,15.79,37.27,28.43,26.84,21.55,29.86,55.71,57.36,85.41,38.98,44.21,33.17,22.95,60.62,33.85,27.65,14.89,59.74,72.18,22.36,75.31,51.48,18.79,30.98,31.5,25.45,59.3,58.43,47.76,40,36.21,48.07,127.66,75.09,39.67,68.7,33.89,48.89,32.85,76.17,55.46,32.05,43.56,16.57,22.76,70.57,45.98,7.46,36.27,14.59,50.24,89.94,26.16,6.97,32.47,22.49,23.99,14.99,63.19,60.52,19.04
89.3,30.22,34.4,57.47,69.59,79.9,33.8,4.1,11.32,36.9,43.87,26.04,36.61,79.36,80.86,37.55,8.53,102.31,30.85,86.24,36.14,35,31.59,241.17,30.31,39.31,56.06,34.42,68.95,52.49,36.41,80.28,30.64,69.24,38.21,52,87.06,24.7,28.72,88.05,11.34,25.03,33.18,33.15,34.97,48.49,39.87,363.65,131.72,30.09,15.51,46.08,42.1,7.92,96.87,55.27,29.91,73.03,66.56,29.15,85.87,19.01,145.09,168.42,15.35,15.77,70.38,35.22,103.64,5.59,29.35,34.71,60.2,24.15,14.08,21.4,53.92,32.55,55.05,37.77,27.09,29.98,31.68,84.91,18.04,35.16,34.56,18.76,36.4,36.28,210.83,54.04,17.47,105.38,299.1,70.03,44.25,36.38,39.24,17.8,28.97,78.08,39.54,67.38,48.09,21.52,54.18,37.06,28.29,32.24,50.52,32.71,30.31,31.46,23.07,52.37,31.2,56.64,32.5,11.34,87.81,4.72,48.83,61.63,22.18,98.93,43.79,53.45,48.88,48.81,14.37,72.87,28.77,15.6,38.38,57.1,59.49,51.64,36.5,26.95,51.35,48.9,49.53,46.36,27.92,42.12,55.49,60.81,79.03,8.57,47.57,53.61,43.9,46.87,65.17,42.04,100.43,13.77,26.21,49.49,52.6,62.97,54.92,56.11,45.47,55.62,60.44,34.17,50.57,37.19,60.86,83.16,103.56,62.62,41.93,88.89,29.81,13.61,8.38,21.26,41.03,35.71,20.21,41.97,52.97,53.9,47.97,9.04,34.21,89.8,38.33,31.11,3.83,17.17,14.49,34.54,37.53,61.93,19.51,35.89,60.9,5.25,28.38,100.38,11.9,200.04,34.28,40.89,45.17,43.54,17.01,35.45,40.31,53.73,47.38,68.65,48.27,18.48,54.14,57.03,27.55,18.68,33.99,14.65,6.33,66.01,6.2,57.04,35.85,51.01,24.29,133.6,10.75,191.87,59.37,11.17,32.17,58.33,511.73,22.62,24.88,22.41,41,12.01,63.3,26.11,54.32,34.77,18.37,47.75,7.99,74.76,18.53,31,50.28,48.86,21.28,65.92,89.01,35.02,24.89,21.86,32.43,21.34,46.48,39.46,23.19,31.47,84.44,39.96,39.37,26.83,43.49,82.34,37.22,25.97,47.23,36.86,32.48,13.4,42.26,32.96,57.39,81.12,85.09,70.18,26.38,38.95,40.08,32.42,32.94,6.57,29.14,41.82,25.78,84.83,60.84,38.61,14.27,57.37,45.79,43.39,23.63,15.92,22.72,68.68,32.66,63.69,16.72,32.35,44.39,64.61,46.67,23.05,31.1,43.96,54.73,70.94,35.57,44.94,65.21,20.72,37.26,14.05,87.99,83.19,49.52,36.16,31.34,18.78,40,54.01,80.14,34.74,30.65,21.36,24.1,42.19,10.94,17.28,68.79,26.91,106.22,69.58,22.04,40.53,85.74,40.93,48.25,100.29,12.09,37.52,58.78,106.61,26.44,102.9,164.53,588.78,25.03,62.48,17.51,31.52,50.26,29.64,135.08,13.17,88.75,26.95,60.64,24.96,57.37,156.09,69.34,52.59,59.42,6.98,26.92,41.57,27.89,70.65,48.34,104.77,67.88,35.52,40.86,13.25,36.81,41.72,44.2,72.2,12.86,57.47,33.04,12.93,64.27,137.61,70.1,141.7,5.46,79.27,67.98,41.57,8.99,32.2,27.1,5.19,35.82,64.62,10.45,46.88,50.84,40.3,91.47,52.44,24.79,17.31,28.38,59.51,60.81,34.07,16.17,21.08,76.09,15.84,37.94,28.04,27.03,21.76,29.54,55.77,58.35,85.64,39.06,44.92,33.3,23.19,61.66,33.45,27.35,15.09,59.79,72.29,22.22,76.84,51.23,18.56,31.42,31.4,25.26,58.98,58.14,48.16,39.94,36.68,49.11,126.68,75.67,40.25,68.55,34.2,49.09,32.83,75.26,54.9,31.96,43.62,16.53,22.57,71.96,45.88,7.41,36.29,14.7,50.38,90.42,26.09,7.04,32.33,22.48,24.18,15.03,63.16,60.59,19.51
88.97,30.13,34.71,57.2,70.19,78.74,33.92,4.09,11.32,38.98,43.85,25.66,36.84,79.5,80.58,37.05,8.58,101.59,31.03,85.29,36.39,34.62,31.38,240.35,30.4,39.34,55.39,34.28,69.04,52.2,36.57,80.14,30.53,68.51,37.95,51.79,87.06,24.6,28.65,90.37,11.31,25.35,33.19,32.9,33.96,48.37,39.75,364.56,131.5,30.01,15.75,46.56,41.95,8.07,96.49,55.18,29.8,73.06,66.13,29.07,85.75,17.03,144.69,168.03,15.79,15.62,70.31,34.82,103.25,5.61,29.47,34.6,60.04,24.32,14.27,20.94,53.65,32.61,54.76,38.11,27.12,29.7,31.78,85.31,18.06,35.28,35.4,18.94,36.08,35.56,209.81,54.42,17.71,105.25,299,70.28,44.46,36.44,39.19,17.69,29.92,76.76,38.98,67.31,47.98,21.55,52.89,37,28.22,32.06,50.41,32.59,29.98,31.75,23.11,52.04,32.26,56.89,31.96,11.34,87.7,4.96,48.48,61.24,22.18,98.95,44.28,53.43,48.51,48.99,14.27,73.77,28.67,15.63,38.16,57.38,59.57,51.48,35.92,26.78,50.79,48.67,49.71,45.95,27.93,42.37,55.42,60.76,79.42,8.68,47.48,53.43,43.62,46.4,64.52,42.1,99.33,13.56,25.95,49.43,52.05,62.96,54.12,56.13,45.31,55.56,59.44,34.34,51.37,37.38,60.17,82.73,101.68,62.5,41.32,88.87,30.6,13.58,8.36,22.46,41.14,35.38,20.08,41.85,53.02,53.9,47.02,9.04,34.25,88.39,37.95,31.12,3.85,18.02,14.4,33.92,38.13,62.33,19.44,36.18,60.49,5.34,28.25,102.01,11.99,198.61,34.16,41.02,44.72,43.63,17.4,35.34,40.5,53.67,47.29,69.05,49.42,19.02,53.98,57.03,27.38,18.11,34.11,14.6,6.34,66.44,6.16,56.36,36.06,50.95,24.2,133.87,10.84,191.18,59.57,11.16,32.13,57.93,510.32,22.55,24.64,22.5,40.95,11.71,63.21,26.01,55.48,35.14,18.25,48.02,7.98,74.88,18.46,31.58,50.24,48.83,21.37,66.17,89.05,35.04,24.83,21.61,31.58,21.06,46.45,39.38,23.17,31.17,85.28,40.09,38.91,25.28,44.03,82.73,37.11,26.03,47.52,36.37,32.38,13.18,42.29,32.93,57.63,81.88,85.13,69.63,26.31,39.53,40.45,32.61,32.65,6.49,28.99,41.73,25.95,84.44,60.42,37.66,14.51,56.67,45.89,43.27,23.88,16.04,22.67,68.06,32.29,64.24,16.76,32.22,45.12,64.08,46.43,22.99,31.11,43.36,54.08,70.68,35.7,44.81,65.62,21.41,37.5,14.05,86.49,83.1,49.41,36.24,31.18,18.86,39.39,53.54,79.17,34.78,30.21,21.97,24.66,42.51,10.94,17.25,68.73,26.73,107.92,69.09,22.15,40.82,85.55,41.22,48.13,98.18,12.22,37.59,58.44,105.56,26.51,103.62,164.54,586.61,24.9,62.24,17.54,31.47,50.63,29.32,132.47,12.8,86.94,27.22,60.17,24.68,58.12,153.52,67.63,52.84,58.54,6.95,26.39,41.31,27.84,69.79,49.27,103.85,68.1,35.46,40.25,13.42,36.89,41.45,44.29,71.78,12.81,57.2,32.5,12.71,64.35,136.83,69.76,141.01,5.44,80.5,67.59,41.47,9.29,32.18,27.23,5.11,36.51,63.03,10.36,46.72,50.43,40.3,90.56,52.58,24.75,17.18,28.2,59.24,60.33,34.12,16.14,20.64,75.23,15.6,38.09,27.73,27.11,21.83,29.41,55.72,57.19,85.26,39.18,44.85,33.27,22.77,62.15,33.84,27.3,14.92,59.46,72.25,22.3,76.56,51.3,18.75,31.28,31.52,26.09,59.91,58.14,47.73,39.62,35.89,49.11,126.16,75.16,40.25,68.84,34.38,49.08,31.86,75.75,55.02,32,43.47,16.65,22.37,70.41,45.58,7.31,36.36,14.58,49.45,91.11,26.08,7.05,32.35,22.43,24.33,14.96,62.28,61.15,19.31
88.33,29.93,35.2,57.38,70.23,78.41,33.75,4.07,11.26,38.71,44.24,25.97,36.57,79.38,79.8,37.43,8.6,101.65,31.75,86.25,36.52,34.56,30.7,239.45,30.24,38.92,55.1,33.76,67.93,52.08,36.43,80.02,30.42,68.46,37.76,51.35,86.4,24.67,28.73,89.13,11.21,25.17,33.18,32.63,34.6,48.21,39.67,364.18,131.52,29.95,15.6,46.31,41.48,8.11,96.88,55.17,29.63,72.66,66,28.99,85.22,16.8,143.97,168.18,15.59,15.63,69.77,34.54,103.26,5.63,29.4,34.28,59.73,24.14,14.34,20.79,54.25,32.56,54.74,37.92,26.95,29.81,32.11,85.17,18.14,35.43,35.67,18.94,35.88,35.56,205.74,54.39,18.01,104.75,296.97,70.22,44.38,35.97,38.92,17.89,30.67,77.26,38.05,67.11,47.63,21.28,51.68,36.8,28.38,32.22,50.29,32.73,29.81,31.81,23.19,51.68,32.64,56.37,32.2,11.21,87.04,4.92,48.14,61.08,22.06,99.04,44.1,53.16,48.23,48.01,14.13,73.54,28.58,15.57,37.37,58.26,58.65,51.5,35.76,26.96,50.77,48.3,49.42,45.69,27.98,42.27,54.88,60.42,79.32,8.68,47.33,53.64,43.26,45.85,64.24,41.56,99.67,13.56,25.52,49.5,51.56,62.57,53.73,56.27,45.29,55.76,59.22,34.14,50.56,37.39,61.04,82.27,102.31,61.98,41.29,89.2,30.58,13.6,8.32,24.14,40.93,35.4,20.02,41.48,52.67,53.49,47.73,8.95,34.42,87.82,37.67,32.12,3.84,18.02,14.31,33.9,37.97,62.71,19.37,36.01,60.18,5.45,28.41,102.05,11.86,196.51,34.32,41.49,44.56,43.67,17.82,35.22,40.57,53.55,46.75,69.17,49.4,18.87,53.74,56.65,27.42,17.96,34.05,14.52,6.26,66.44,6.14,56.17,36.11,50.57,24.09,132.66,10.91,189.42,59.13,11.21,32.24,57.54,507.5,22.64,24.48,22.73,41.29,11.79,63.28,25.74,56.27,35.77,18.12,48.02,7.96,74.96,18.59,31.68,50.51,48.62,21.26,66.35,88.51,34.94,24.91,21.59,30.88,21.13,46.53,39.26,23.31,31.22,85.71,39.97,38.26,25.44,43.33,82.11,37.53,25.9,46.91,36.16,32.09,13.17,41.91,32.75,57.56,82.2,85.32,68.26,26.25,39.24,39.71,32.93,32.61,6.46,29.04,41.74,26.17,84.65,60.68,37.49,14.57,56.23,45.89,43.55,23.83,15.95,22.85,68.37,32.35,65.6,16.77,32.01,45.42,63.64,46.47,22.71,30.92,43.01,54.11,70.73,35.27,44.67,65.4,21.02,37.61,14.02,85.78,82.64,48.95,36.33,30.9,18.62,39.32,53.09,78.65,34.73,30.33,22.79,24.41,42.88,10.84,17.15,68.43,27.08,106.96,69.24,21.95,40.31,84.21,39.76,48.05,96.69,12.19,37.6,58.92,103.92,26.35,103.2,164.44,585.76,25.25,62.26,17.54,31.4,50.95,29.42,132.37,12.58,87.53,27.55,59.48,24.76,57.93,152.77,66.82,52.68,58.07,6.85,26.24,40.87,27.6,69.29,49.06,102.91,68.01,35.19,40.26,13.38,36.91,42.14,44.03,71.79,12.86,57.23,32.16,12.7,63.34,134.8,69.49,140.51,5.35,80.38,67.7,41.33,9.31,32.35,27.1,5.08,36.31,63.85,10.33,46.76,50.02,40.25,90.23,52.39,24.59,17.29,28.08,59.38,60.8,34.2,16.12,20.56,75.37,15.69,37.6,27.83,26.94,21.83,29.51,55.54,56.77,85.2,38.66,44.79,33,22.54,61.76,34.05,27.21,14.95,59.65,71.74,22.48,75.79,51.51,18.75,36.98,31.33,26.14,59.81,58.21,47.49,38.88,35.87,48.73,125.53,76.18,39.93,68.02,34.02,48.29,31.75,76,54.91,32.29,42.84,16.59,22.57,70.2,45.98,7.42,36.22,14.7,49.39,90.95,25.89,7.05,32.64,22.4,24.24,14.97,62.68,60.77,19.3
88.38,30.04,35,57.92,70.39,78.98,33.84,4.01,11.32,38.39,43.84,26.2,36.44,79.9,80.73,37.96,8.65,104.23,31.42,85.12,36.6,34.39,30.26,243.1,30.22,38.89,55.31,33.18,67.64,52.03,36.77,80.75,29.94,68.84,37.16,51.44,86.71,24.95,27.95,90.88,11.21,25.12,33.1,32.61,35.49,48.13,39.87,365.5,133.15,29.68,15.48,46.45,41.8,8.14,95.9,54.72,29.7,72.5,66.6,29.07,85.69,16.62,144.92,167.72,15.44,15.59,69.32,34.51,103.51,5.52,29.58,34.07,59.89,24.13,14.21,20.91,54.32,32.41,54.16,37.69,26.61,29.9,31.86,83.69,17.89,35.3,35.8,18.89,35.93,35.91,208.08,54.25,18.17,104.91,297,70.12,44.63,35.96,38.72,17.95,30.43,77.68,38.77,67.07,47.59,21.2,52.36,36.35,28.29,32.42,50.13,32.66,29.76,31.71,23.18,51.72,32.97,56.57,32.23,11.09,87.26,4.87,46.92,61.07,22.02,97.81,44.17,53.36,47.96,48.25,14.31,72.95,28.52,15.43,36.96,59.29,58.5,51.79,37.14,27,50.54,48.95,49.24,45.72,27.95,42.27,54.54,60.36,78.8,8.73,47.7,53.82,43.47,47,65.66,41.4,99.61,13.44,25.72,48.88,51.81,62.22,53.79,55.92,45.05,56.32,58.68,33.78,50.67,36.91,60.71,82.53,100.23,61.65,41.38,88.44,30.3,14,8.25,23.93,40.85,35.19,19.62,41.77,52.03,54.57,47.3,8.91,34.53,88.01,37.85,32.57,3.82,17.38,14.16,33.88,37.9,62.49,19.3,35.85,59.9,5.38,28.24,101.42,11.73,197.9,33.84,41.63,44.27,43.37,17.51,35,40.6,52.11,46.24,69.59,49.38,18.18,54.05,56.43,27.34,18.69,33.81,14.46,6.26,67.07,6.19,55.86,35.63,50.21,23.74,134.25,10.55,188.09,59.05,11.35,32.3,58.23,507.76,22.67,24.38,22.52,40.71,11.72,63.26,25.86,56.23,35.57,18.18,47.73,7.97,74.68,18.54,31.68,50.21,48.42,21.21,66.28,88.08,34.81,24.77,21.59,32.04,21.05,46.43,39.23,23.13,31.12,85.01,39.92,38.35,26.22,42.9,81.73,37.58,26.53,47.23,36.2,32.08,13.38,41.7,32.7,57.65,82.23,84.94,69.01,26.44,38.8,39.68,32.48,32.5,6.32,28.8,41.62,26.11,85.01,61.31,37.47,14.54,56.75,45.71,42.62,23.76,15.82,22.34,68.36,32.6,65.4,16.63,32.13,46.41,63.32,46.43,22.64,31.13,43.26,55.16,70.53,35.23,44.6,64.29,20.66,37.8,14.04,85.42,83.3,48.76,36.32,30.85,18.57,38.7,53.69,78.56,34.53,30.3,22.87,24.4,42.81,10.86,17.09,68.32,27.07,107.18,69.32,21.96,40.27,83.44,39.7,47.8,97.25,12.09,37.58,58.88,107.38,26.33,104.65,163.29,591.04,25.67,62.34,17.49,30.99,50.64,29.31,132.37,13.08,87.26,27.86,59.57,24.34,57.45,154.37,66.69,52.2,58.4,6.91,26.25,40.57,27.04,68.62,48.42,102.68,68.15,35.53,39.52,13.36,37.15,42.69,43.81,72.24,12.79,57.45,32.58,12.83,63.34,136.34,69.88,140.68,5.39,80.18,68.05,41.58,9.17,32.87,26.97,4.88,36.05,64.07,10.25,46.78,50,40.08,90.29,51.92,24.51,17.14,28.05,59.31,60.37,33.5,16.08,20.48,74.71,15.6,37.49,27.59,26.77,21.76,29.78,55.72,56.39,85.17,38.68,45.09,32.95,22.46,61.97,33.94,27.08,14.76,59.63,71.96,22.4,76.16,52.04,18.48,37.19,31.2,25.92,59.23,58.44,47.85,38.64,35.76,48.71,126.1,75.75,40.17,68.34,33.92,48.31,31.67,76.65,56.16,32.1,42.68,16.34,22.83,71.35,46.49,7.45,36.44,14.55,49.16,91.28,25.8,6.93,32.22,22.3,24.07,14.92,62.38,60.29,19.15
87.72,29.95,34.2,57.24,70.22,78.63,33.5,3.9,11.04,38.12,43.48,26.21,36.02,78.5,79.78,37.13,8.41,103.7,29.9,84.53,36,34.39,29.84,241.2,29.93,38.88,54.92,33.39,67,51.63,36.83,80.54,29.94,67.84,37.04,50.87,85.58,25,27.39,90.03,11.23,25.07,32.67,32.61,35.71,48.04,39.82,363.26,133.56,29.42,15.06,46.11,41.23,8.07,95.79,54.68,29.02,71.81,66.18,28.63,85.15,16.89,145.15,167.02,15.25,15.54,67,34.13,103.47,5.4,29.89,34.11,59.77,24.01,14,20.23,53.96,32.46,53.92,37.63,26.35,29.55,31.14,82.66,17.65,35.16,35.74,18.76,36.06,35.51,201.2,53.82,17.62,104.1,291.99,69.74,44.11,35.76,38.46,17.87,29.53,77.05,36.81,66.99,47.4,20.9,52.13,35.73,27.9,32.49,49.82,32.64,29.38,31.59,23.03,51.25,32.19,56,32.28,10.92,86.53,4.87,46.95,60.79,21.66,96.72,43.83,52.82,46.69,48.09,14.33,72.09,28.41,15.2,36.38,58.61,57.71,51.72,36.82,26.84,49.71,48.5,48.81,45.93,27.57,41.66,53.66,59.67,78.66,8.4,47.18,53.48,43.34,46.81,65.17,40.95,99.3,13.25,25.36,48.7,51.83,61.95,52.86,54.11,45.19,56.63,58.4,33.59,51.35,36.44,61.58,82.13,99.02,60.45,41.41,87.77,30.33,13.83,8.06,24.61,40.14,35.24,19.39,41.75,51.95,53.47,47.49,8.87,34.62,86.78,37.73,32.37,3.77,17.48,14.19,33.57,37.11,61.84,19.17,35.73,59.75,5.24,28.02,100.84,11.73,197,33.33,41.04,43.7,43.81,17.3,34.57,39.78,51.28,45.15,69.67,48.73,16.7,53.96,56.05,27.72,18.48,33.36,14.34,6.12,67.4,6.22,55.98,35.85,49.58,23.1,133.98,10.36,186.61,58.49,11.38,31.78,56.8,503.21,22.42,24.13,22.55,40.53,11.62,63.25,25.67,55.23,35.01,18.15,47.81,7.97,74.29,18.4,31.57,50.01,48.38,20.95,66.43,87.51,34.37,24.43,21.58,31.72,20.64,46.46,39.44,22.84,31.01,84.25,39.26,38.3,26.34,42.15,80.66,37.19,26.55,47.03,36.08,32,13.44,41.42,32.6,57.74,81.95,85.18,69.44,26.17,38.5,39.58,32.11,32.14,6.26,28.53,41.63,26.28,82.86,59.65,37.22,14.19,55.44,45.54,41.68,23.56,15.37,22.03,67.64,32.6,64.05,16.67,31.35,46.16,62.57,46.27,22.4,30.94,42.35,54.54,69.5,34.84,43.94,63.47,20.4,36.49,13.73,86.46,81.83,48.1,36.19,30.74,18.36,38.23,53.44,78.16,32.84,30.41,21.96,24.5,41.78,10.79,17.06,68.1,26.95,107.9,68.9,21.99,39.82,81.44,39.55,47.05,96,12.16,37.33,58.57,105.39,26.13,102.8,161.46,593.53,25.5,62.18,17.36,30.69,49.9,28.98,131.28,13.11,86.86,27.04,59.45,24.31,57.04,152.86,65.35,52.08,57.73,6.83,26.01,40.19,27.22,69.06,47.67,103.22,67.59,35.21,38.97,12.81,36.69,41.45,43.31,71.63,12.67,57.62,31.21,12.48,62.6,136.77,68.79,138.7,5.35,80.17,67.46,41.12,9.15,30.95,26.78,4.78,36.05,63.07,10.12,46.57,49.26,39.64,90.24,51.35,24.23,17.07,27.89,58.82,59.72,33.56,15.89,20.24,74.55,15.45,37.19,27.53,26.43,21.48,29.43,55.47,56.23,84.96,38.32,44.59,32.88,22.49,61.35,33.54,26.9,14.77,59.2,71.53,20.84,75.72,51.99,18.48,36.83,31.07,25.62,58.79,57.93,47.54,38.3,35.6,48.3,125.17,75.01,39.45,68.14,34.03,47.84,31.62,77.1,55.35,31.86,41.7,16.22,22.92,70.75,45.57,7.41,35.95,14.34,48.8,90.72,25.32,6.93,31.93,22.14,23.79,14.87,61.79,59.71,18.83
88.53,30.18,34.82,57.9,70.34,83.32,32.26,3.94,11.16,37.56,43.93,26.48,36.24,78.33,78.89,37.1,8.41,106.74,29.29,84.94,36.05,35,30.4,245.74,29.96,39.06,55.97,34.09,67.22,52.37,36.95,81.44,30.28,68.48,37.2,51.1,85.53,25.15,27.09,90.11,11.2,25.23,32.95,32.95,30.13,48.42,40.52,365.08,133.97,29.58,15.12,46.27,41.19,8.08,96.43,55.13,29.11,72.44,66.4,28.79,85.39,16.24,147.03,167.93,15.23,15.58,67.7,33.82,103.71,5.5,30.28,34.24,60.24,24.02,14.11,20.84,53.71,32.73,55.12,37.79,26.43,29.81,31.1,82.51,17.58,35.74,36.02,18.84,36.57,35.63,202.04,54.16,17.7,104.78,295,70.26,44.45,35.98,38.72,17.93,29.77,77,36.41,67.31,47.7,21.04,52.68,36.06,28.2,32.43,50.32,32.64,29.58,31.76,23.18,51.43,32.08,56.4,32.72,10.89,87.91,4.87,47.42,61.04,21.8,96.42,44.04,52.96,47.5,48.51,14.43,72.61,28.46,15.38,36.23,59.11,57.9,52.63,37.3,27.25,49.66,49.29,49.13,45.98,27.67,42.14,53.85,59.88,79.21,8.5,47.28,53.18,43.98,47.1,64.9,41.2,99.18,13.33,26.05,48.94,51.58,62.29,53.79,53.66,45.58,56.22,58.96,33.56,52.11,36.63,61.76,82.83,98.65,60.13,42.31,87.97,30.56,14,8.15,24.77,40.02,35.44,19.36,41.71,51.81,53.2,47.21,8.91,34.68,87.84,38.07,31.8,3.83,17.26,14.24,33.71,36.91,62.29,19.32,36.39,59.79,5.41,28.65,101.7,11.75,197.83,33.45,41.15,44.11,43.71,17.43,34.76,40.17,52.11,45.03,69.67,49.13,16.64,54.36,55.93,27.68,18.7,33.74,14.45,6.13,68.1,6.23,56.74,36.25,49.7,22.98,135.33,10.31,188.58,58.54,11.42,32.14,57.04,505.52,22.55,24.15,22.52,40.4,11.68,63.69,25.73,54.02,34.95,17.66,48.11,8.03,74.51,18.54,31.97,50.3,49.37,21.06,66.69,88.84,34.44,24.71,21.88,32.32,20.79,46.84,40.8,23.08,31.21,84.48,39.71,38.41,26.69,42.3,81.01,37.98,26.68,46.75,35.94,32.3,13.63,41.82,32.86,58.33,82.57,85.85,70.07,26.36,38.7,39.87,32.29,32.34,6.3,28.82,41.76,26.65,82.38,59.75,37.52,14.24,55.2,45.58,41.75,23.79,15.26,21.93,67.38,33.95,63.16,16.76,31.71,46.34,62.97,46.96,22.53,31.01,42.68,55.38,69.52,35.05,44.21,63.92,20.38,36.08,14.01,86.87,82.43,48.54,36.4,31.1,18.14,38.46,53.34,78.38,32.75,30.6,22.38,24.75,41.58,10.86,17.17,68.48,26.83,109.75,69.33,22.24,40.08,82.42,39.58,47.26,98.52,12.16,37.5,58.78,105.55,26.32,102.33,164.64,593.18,25.71,62.49,17.53,31.18,50.66,29.15,132.56,13.29,87.72,28.65,59.82,24.2,57.83,155.88,65.96,52.19,57.77,7,26.01,40.63,27.08,69.28,47.7,102.9,68.29,35.45,38.85,12.95,37.13,42.2,43.62,72.02,12.93,58.42,31.55,12.63,62.81,139.53,69.06,139.28,5.39,80.65,67.64,41.39,9.07,31.55,26.8,4.89,35.92,63.75,10,47.35,50.29,39.85,91.26,51.84,24.41,17.04,28.2,59.85,60.38,33.43,15.92,20.68,75.47,15.64,38,27.76,26.38,21.47,29.64,55.75,56.27,85.41,38.58,44.88,33.19,22.64,61.92,34.05,26.94,14.78,59.3,71.57,20.47,76.56,52.22,18.38,36.94,31.33,25.65,59.58,58.3,47.5,39.14,36.01,48.72,124.69,75.48,40.92,68.66,34.02,48.22,31.56,77.72,55.29,31.97,41.85,16.28,22.69,71.08,46.51,7.55,36.12,14.82,49.56,90.88,25.57,7.01,32.27,22.27,23.66,14.92,61.18,59.94,18.96
88.3,30.13,35.02,57.63,70.02,82.65,32.32,3.85,11.21,37.83,43.9,26.19,36.25,77.59,78.53,37.24,8.27,106.94,29.14,85.1,35.93,35.13,30.56,243.92,29.95,39.07,55.9,34.2,67.28,51.39,36.79,81.29,30.27,67.69,37.07,50.91,85.46,25.15,26.84,91.8,11.06,25.27,32.83,32.88,30.51,48.49,40.7,366.45,133.59,29.13,15.06,45.96,41.01,7.99,96.18,55.23,29.19,72.33,66.52,28.72,85.41,16.76,147.39,166.74,15.12,15.36,67.97,33.92,103.33,5.43,30.58,34.31,60.72,23.97,13.94,21.03,54.27,33.09,55.09,37.85,26.46,29.67,31.74,81.72,17.44,35.65,35.85,18.97,36.32,35.59,200.43,53.56,17.62,104.51,292.95,70.35,44.7,35.72,38.7,18.08,29.63,77.17,35.31,67.35,47.72,21.1,52.71,35.78,28.47,32.28,50.34,32.66,29.53,31.75,23.35,51.45,31.43,56.23,32.45,10.96,88.27,4.83,47.36,61.19,21.6,94.97,43.92,53.06,47.34,48.73,14.45,71.28,28.83,15.17,36.12,58.3,57.84,52.56,37.61,27.43,48.85,48.38,49.65,45.92,27.24,42.28,54.07,59.91,79.4,8.39,46.91,53.29,43.72,46.98,64.54,40.94,100.26,12.93,25.78,48.83,51.79,62.1,53.92,53.68,45.11,56.41,58.68,33.76,51.24,35.97,61.9,82.54,100.49,59.34,42,86.92,30.53,14.09,8.34,25.54,39.95,35.31,19.16,41.89,51.47,52.68,47.42,8.82,34.69,87.72,37.71,31.38,3.85,17.01,13.92,33.68,36.71,61.85,19.37,36.74,59.49,5.26,28.59,101.85,11.56,199.14,33.63,41.68,44.39,44.17,17.23,34.92,40.32,52.31,44.44,69.87,48.82,16.29,54.08,55.96,27.55,18.44,33.81,14.33,7.1,68.17,6.2,57.14,35.76,49.73,22.92,135.9,10.27,186.6,58.44,11.57,32.05,57.52,500.69,22.41,23.87,22.63,40.1,11.84,63.59,25.69,52.83,35.01,17.67,48.27,7.99,74.47,18.54,31.96,49.94,49.41,21.25,66.27,88.5,33.88,24.26,21.76,31.7,20.72,47.06,41.48,22.76,31.02,84.33,39.9,38.36,26.66,41.62,84.74,37.87,26.47,47.56,36.32,32.49,13.36,41.92,32.72,58.58,83.15,86.25,70.18,26.3,38.59,39.81,32.06,32.17,6.23,28.94,41.84,26.57,83.15,60.03,37.46,14.22,54.85,45.66,41.59,23.59,14.96,22.06,68.34,34.08,62.39,16.42,31.79,46.16,63.4,46.75,22.65,30.86,42.58,55.13,69.31,35.04,44.02,63.65,20.39,35.89,13.77,86.72,82.05,48.39,36.46,30.98,17.98,38.05,53.28,78.21,32.84,30.64,21.84,24.65,41.04,10.77,17.24,68.58,26.75,109.92,69.19,22.13,39.99,82.72,39.3,47.24,97.93,11.92,37.73,58.74,105.77,26.32,101.18,163.21,588.4,25.64,62.58,17.65,31.47,50.23,29.08,132.38,13.03,88.27,28.52,59.76,24.13,58,154.93,65.96,52.7,57.25,6.92,25.89,40.65,25.89,69.21,47.59,102.55,68.06,35.12,38.97,12.91,37.26,42.12,43.59,72.27,12.77,57.74,31.36,12.49,62.86,139.5,68.56,140.71,5.36,81.18,67.26,41.52,8.93,31.9,26.78,4.82,35.87,63.52,9.86,47.78,50.36,39.52,91.1,51.8,24.5,16.95,28.23,59.02,60.07,33.54,15.85,20.96,76.09,15.5,37.82,27.53,26.29,21.33,29.97,55.8,60.32,85.71,38.37,44.69,33.3,22.52,61.71,33.97,27.09,14.58,59.14,71.13,20.27,77.02,52.66,18.28,36.92,31.48,26.99,59.16,58.6,47.22,38.77,35.9,48.4,125.67,75.6,40.12,69.04,33.97,48.28,31.39,78.01,55.77,31.95,42,16.24,22.9,70.78,46.4,7.49,36.13,14.99,49.81,91,25.61,6.93,31.99,22.24,23.31,14.85,61.07,59.74,18.88
88.02,30.13,34.53,57.26,69.98,82.93,32.06,3.79,11.07,37.38,43.94,25.85,36.25,77.33,78.61,37.31,8.29,107.54,29.08,84.25,35.8,35.69,30.78,246.11,29.89,39.14,56.03,33.89,67.27,51.7,36.37,80.88,29.85,68.19,37.02,50.87,85.06,25.15,26.65,91.68,11.07,25.22,32.26,32.68,31.23,48.39,40.47,364.72,133.39,29.18,14.96,45.67,40.94,7.88,96.17,55.02,29.49,72.17,67.24,28.45,84.92,16.75,146.43,167.98,15.08,15.41,68.11,33.74,103.72,5.48,30.65,34.28,60.79,24.1,13.79,20.75,54.62,33.19,54.93,37.66,26.5,29.68,32.7,81.13,17.41,35.54,36.01,19.1,36.32,35.83,201.27,53.15,17.68,105.09,294.07,70.21,44.67,35.74,38.34,17.95,29.28,77.04,34.98,67.2,48.01,21.15,53.2,35.62,28.57,32.21,50.6,32.64,29.85,31.4,23.53,51.52,30.84,56.19,32.44,11.04,88.21,4.87,47.32,61.58,21.52,93.39,43.84,53.03,47.27,48.75,14.36,69.9,29.78,15.43,35.9,58.38,57.56,52.31,37.26,27.36,48.82,48.4,49.55,45.92,27.08,41.96,54.06,59.79,78.17,8.6,46.77,53.58,43.22,46.94,63.44,40.67,101.08,12.83,25.8,48.81,52.21,62.14,53.75,53.16,44.87,56.5,59.05,33.58,51.93,35.81,61.92,82.88,100.83,59.35,41.81,86.38,30.29,14.11,8.39,25.7,39.68,35.03,19.03,41.65,51.3,52.61,47.31,8.77,34.74,87.24,37.77,31.4,3.82,17,13.89,33.7,36.91,61.98,19.33,36.77,59.6,5.27,28.82,102.21,11.45,198.79,33.27,41.8,44.37,44.41,17.1,34.77,40.54,52.18,44.13,69.55,49.77,16,54.22,56.12,27.67,18.32,33.36,14.41,6.91,68.06,6.23,56.42,35.74,49.69,23.06,136.59,10.16,185.82,58.34,11.55,31.94,57.38,498.01,22.58,23.84,22.31,39.88,11.91,63.61,25.78,51.57,34.91,18.26,48.28,7.99,74.51,18.57,31.92,48.69,49.23,21.44,66.21,88.3,34.06,24.4,21.71,31.96,20.68,47.07,41.59,22.62,31,84.51,39.7,38.83,26.81,41.93,83.42,38.62,26.8,47.79,36.22,32.28,13.35,42.04,32.55,58.56,82.78,86.28,70.57,26.24,38.57,39.6,31.94,32.36,6.2,28.88,41.72,26.65,83.96,59.48,37.53,14.28,54.62,45.55,41.83,23.43,14.73,22.24,67.54,33.85,62.95,16.49,31.79,45.98,63.48,47.93,22.8,30.56,42.7,54.9,69.58,35.09,44.06,63.46,20.36,35.71,13.71,86.6,82,48.3,36.3,30.73,17.79,37.85,53.04,77.6,32.75,30.64,21.42,25.3,40.63,10.74,17.2,68.53,26.54,110.34,68.88,22.1,40.03,83.45,40.16,47.16,98.24,11.93,37.68,58.7,105.3,26.34,99.92,162.98,590.12,25.65,62.47,17.62,31.63,49.93,29.01,133.43,13.07,92.54,28.86,59.42,24.23,57.87,155.38,65.6,52.59,56.88,6.93,25.89,41.04,25.56,69.08,47.38,101.94,67.98,34.9,38.8,13.01,36.28,41.49,43.43,71.82,12.81,58.29,31.19,12.5,62.4,139.41,68.81,140.59,5.36,80.82,67.16,41.29,8.84,31.32,26.67,4.85,36.08,62.59,9.82,47.99,50.3,39.52,91.3,51.83,24.11,17.06,28.28,59.21,60.5,33.42,15.89,20.96,76.27,15.6,38.1,27.46,26.34,21.45,30.06,55.44,60.12,85.72,38.07,44.8,33.21,22.42,61.39,34.26,26.92,15.24,59.07,70.5,20.09,77.1,52.39,18.21,37.02,31.59,27.29,58.77,58.93,47.26,38.68,36.66,48.38,125.41,75.31,40.21,68.95,33.78,48.28,31.52,77.54,55.03,32.03,41.72,16.2,23.06,70.73,46.39,7.55,36,15.2,49.85,90.79,25.59,7.01,32.23,22.11,23.23,14.72,60.94,59.95,19.03
88.14,30.08,34.58,57.42,69.76,82.12,31.96,3.77,11.17,37.95,44.07,25.99,36.48,77.11,78.77,37.68,8.32,106.57,28.75,84.82,35.85,35.56,30.86,247.12,29.78,39.22,55.9,33.57,67.53,51.68,36.51,80.6,29.86,68.63,37.28,50.76,84.58,24.98,26.55,91.5,11.14,25.42,32.75,32.84,30.92,48.38,40.39,363,132.8,29.46,15.06,44.61,40.94,7.92,96.45,55,29.66,72.05,66.77,28.67,84.55,17.08,145.89,166.88,15.22,15.44,68.03,34.17,103.72,5.55,30.59,34.64,62.17,24.15,13.74,20.47,54.2,33.06,54.74,38.08,26.46,30.33,32.88,81.21,17.41,35.38,35.81,19.08,36.68,36.63,201.95,54,17.82,104.58,293.24,70.11,44.82,35.48,38.48,17.93,29.85,77.97,34.49,67.1,48.36,21.22,53.02,35.12,28.55,32.37,50.64,32.64,30.07,31.28,23.55,51.42,30.74,55.81,32.85,11.19,88.7,4.87,47.68,61.95,21.56,94.12,43.91,52.97,47.62,48.66,14.39,70.39,29.46,15.14,36,56.87,57.84,52.55,37.21,27.52,48.54,48.46,49.14,46.03,27.14,42.02,53.96,59.73,79.39,8.62,46.9,53,42.91,47.49,63.54,41.05,101.82,12.85,26.25,48.77,51.48,61.95,53.37,53.08,44.82,56.31,59.01,33.31,51.91,35.74,61.83,82.69,102.09,61.24,41.56,86.55,30.33,14.29,8.69,24.2,39.35,35.58,19.22,41.7,50.96,53.04,47.37,8.75,34.66,87.67,37.73,31.32,3.86,17.44,14.03,33.76,37.05,62.07,19.34,36.89,59.14,5.34,28.88,102.7,11.74,197.27,32.71,41.64,44.52,44.67,17.1,34.77,40.48,52.23,43.41,69.34,49.47,16.04,54.52,56.29,27.62,18.45,33.6,14.36,6.94,68.86,6.29,56.36,35.79,49.67,22.76,135.49,10.21,186.02,58.31,11.61,32.42,57.6,496.54,22.46,24.48,22.53,39.74,11.75,63.47,25.9,52.89,35.07,18.4,48.05,8.04,74.35,18.58,32.11,49.23,49.18,21.39,66.76,88.32,33.97,24.23,21.73,31.91,20.88,47.88,42.02,22.61,30.99,84,39.91,38.33,27.28,41.76,83.51,38.67,26.52,47.68,36.55,32.28,13.39,42.16,32.87,58.61,83.25,86.56,69.71,26.5,38.92,39.82,31.85,32.35,6.2,28.9,41.89,26.53,84.69,59.28,37.87,14.49,55.64,46.06,41.27,23.61,14.6,22.15,67.49,34.1,63.44,16.74,31.51,45.63,63.45,47.85,22.74,30.65,42.68,55.46,69.58,35.21,44.13,63.78,20.39,35.65,13.74,85.97,80.86,48.51,36.53,30.65,17.71,37.91,53.74,77.03,33.04,30.65,21.32,26.23,40.48,10.84,17.27,68.21,26.36,109.39,69.14,22.2,39.9,83.36,40.18,47.24,98.41,11.93,37.8,59.27,106.09,26.43,100.43,163.15,603.21,26,62.35,17.35,31.94,50.54,28.86,133.47,13.18,93.59,28.85,59.51,23.92,58.15,155.65,65.12,53.07,57.03,6.87,25.78,41.18,26.12,69.19,47.24,101.9,68.51,34.93,38.53,13.04,36.4,41.22,43.45,70.71,13.05,58.17,31.12,14.02,62.48,141.39,69.61,139.89,5.35,81.25,67.23,41.06,8.75,30.92,26.57,4.86,36.42,62.82,10.03,47.81,50.88,39.65,92.42,51.69,24.46,17.14,28.18,58.56,60.92,33.45,15.75,21.08,77.77,15.52,37.95,27.61,26.3,21.6,29.95,56.32,60.36,85.73,38.61,45.63,33.29,22.42,61.35,34.21,26.78,15.3,59.01,70.22,19.48,76.65,52.69,18.48,37.77,31.77,26.99,59.48,59,47.43,39.06,36.65,48.45,126.02,75.27,39.85,69.29,33.68,48.68,31.9,79.18,59.26,32,41.72,16.38,23.31,71.88,46.49,7.73,36,15.49,50.28,90.52,25.59,7.02,32.09,22.1,23.19,14.84,61.05,60.68,19.12
87.51,29.98,34.53,57.54,69.65,81.52,31.46,3.7,11.04,37.64,43.78,25.91,36.4,76.86,78.22,37.31,8.23,105.6,27.92,85.39,35.7,35.11,30.72,246.22,29.78,39.06,55.65,33.42,67.88,51.77,36.95,80.05,29.63,67.19,37.15,50.45,83.18,24.86,26.46,90.2,10.92,25.37,33.34,32.72,30.41,48.01,40.29,359.87,131.74,29.11,15.01,43.82,40.97,7.83,96.26,54.85,29.57,72.33,67.02,28.6,84.01,16.69,145.95,167.22,15.41,15.19,67.44,33.43,103.31,5.43,30.56,33.99,61.74,23.86,13.68,20.18,53.23,32.82,54.3,37.65,26.4,30.29,32.74,79.68,17.2,35.2,35.42,19.02,36.42,36.74,198.11,53.28,17.38,103.77,290.03,70.11,45.63,35.46,38.19,17.65,29.59,76.98,33.47,67.3,48.44,21.12,54.06,34.82,28.03,31.92,50.34,32.33,29.82,31,23.31,51.2,29.96,55.79,32.82,11.06,90.05,4.74,47.61,62.28,21.38,92.23,43.69,52.66,47.37,48.5,14.15,70.58,29.06,14.9,35.7,55.82,57.49,52.36,37.08,27.69,50.07,48.09,48.72,45.87,27.18,41.59,53.7,59.27,78.08,8.5,46.56,52.49,42.14,46.55,62.45,41.14,102,13,25.65,48.01,50.8,61.65,52.3,53.22,44.25,56.03,58.68,33.35,50.56,35.15,61.73,82.03,97.39,62.09,40.76,86.12,30.11,14.25,8.7,19.67,39.13,35.42,19.22,41.13,50.25,52.83,46.23,8.74,35.04,85.53,37.35,30.54,3.92,17.96,13.99,34.66,36.43,61.57,19.17,36.67,59.42,5.21,28.75,101.91,11.65,197.14,32.03,41.03,44.31,44.23,17.14,34.67,40.89,52.26,43.13,68.66,48.63,15.88,54.31,55.69,27.42,18.47,33.52,14.26,6.89,67.12,6.22,56.02,35.6,49.29,22.39,134.59,10.14,184.39,57.81,11.61,31.96,56.82,491.66,22.26,24.44,22,39.19,11.07,63.32,25.9,50.66,34.7,17.67,47.66,8.08,74.35,18.57,32.11,47.97,49.62,21.44,66.59,87.43,33.21,23.92,21.73,31.79,20.18,47.5,41.77,22.57,30.77,84.01,39.79,38.31,27.13,43.35,82.73,38.51,26.13,48.72,36.49,32.08,13.28,41.68,32.74,58.19,83.02,85.67,69.59,26.27,38.61,39.87,31.68,32.07,6.18,28.59,41.8,26.32,84.15,58.57,37.98,14.58,54.66,45.52,40.46,23.48,14.48,21.95,66.66,33.32,60.48,16.93,31.64,45.7,63.1,47.56,22.7,30.25,42.54,55.24,68.62,35.12,43.93,63.13,20.4,35.15,13.48,84.95,79.03,48.01,36.33,30.34,17.6,37.61,53.34,76.18,32.72,30.61,20.88,25.99,40.35,10.78,17.16,67.65,26.5,109.08,69.13,22.09,39.61,83.14,40.65,47.08,96.01,11.9,37.66,58.77,104.91,26.39,100.13,161.06,603.6,25.77,62.36,17.31,31.78,50.17,28.7,134.36,13.14,93.26,28.09,58.64,23.62,57.49,154.18,64.25,52.66,55.89,6.85,25.81,41.1,25.59,68.57,46.96,101.26,67.96,34.25,38.19,13.1,35.67,40.23,43.12,69.39,13.08,57.5,29.84,13.76,62.08,138.91,69.06,139.54,5.29,80.68,67.09,40.94,8.82,30.61,26.48,4.83,36.15,62.06,9.95,48.33,50.55,39.6,91.55,51.24,24.34,16.99,28.12,58.56,60.83,33.41,15.76,21.12,76.49,15.35,38.06,27.24,25.91,21.35,29.58,56.13,59.37,85.26,38.26,44.61,33.12,22.29,61.06,33.71,26.75,15.12,58.34,69.77,19,75.59,52.74,18.43,37.85,31.57,26.95,58.74,59.23,47.2,38.77,36.52,48.05,124.72,74.3,38.36,68.8,33.6,48.08,31.79,79.09,57.97,31.81,40.38,16.27,23.3,71.52,46.51,7.65,35.86,15.36,49.78,88.74,25.49,6.96,31.86,21.99,23.26,14.67,60.54,60.57,19.03
88.31,30.04,34.63,57.96,69.85,81.35,31.27,3.72,11.04,37.26,43.93,25.99,36.44,77.63,79.7,37.51,8.34,107.21,28.22,85.82,35.8,35.95,30.29,248.27,29.53,39.23,56.75,33.95,68.15,52.12,37.36,80.8,29.9,68.19,37.48,50.7,83.82,24.79,26.85,90.38,11.13,25.58,33.98,32.68,31.05,48.13,40.2,361.64,131.5,29.59,15.01,44.41,41.32,7.91,96.59,55.06,29.51,72.49,67.17,28.66,84.34,16.64,146.59,167.56,15.42,15.31,67.99,34,103.98,5.4,30.69,34.51,62.07,24.23,13.9,20.61,54.71,32.87,54.79,37.63,26.27,30.59,32.42,80.49,17.31,35.53,36.02,18.9,36.57,36.57,201.47,53.63,17.66,104.92,288.64,70.48,45.72,35.58,38.3,17.82,29.65,77.69,33.55,67.72,48.79,21.24,54.79,35.06,28.15,32.14,50.58,32.24,29.55,31.2,23.43,51.82,29.47,55.66,32.94,11.41,89.39,4.74,47.79,62.58,21.43,93.55,44.03,53.23,47.14,48.63,14.47,71.13,29.54,15.31,35.8,56,58.18,52.09,37.43,28.02,51.07,48.17,48.68,46.24,27.13,41.79,53.54,59.25,78.25,8.57,46.72,53.17,42.35,47.47,62.47,41.13,102.11,13.33,25.67,47.99,52.14,61.7,53.49,53.63,44.5,55.83,58.82,33.24,50.44,35.56,62.62,82.12,97.49,61.38,40.77,86.55,30.12,14.31,8.68,19.99,39.09,35.65,19.3,41.67,50.43,53.3,46.84,8.77,34.69,84.95,37.52,31.79,3.82,17.88,14.1,34.38,36.77,61.75,19.24,36.66,59.27,5.29,28.84,102.88,12.06,198.77,32.06,40.58,44.67,44.18,17.32,34.78,41.09,52.38,43.85,68.91,49.46,15.98,54.43,56.02,27.62,18.69,33.58,14.41,6.85,68.23,6.26,56.37,36.13,49.11,22.91,134.94,10.15,185.8,58.04,11.68,32.15,57.14,491.79,22.44,24.33,22.05,39.54,11.19,63.53,25.95,52.04,34.92,17.36,47.74,8.11,74.45,18.54,32.41,48.36,49.39,21.52,66.94,87.95,33.95,23.79,21.74,32.12,20.26,47.71,41.78,22.54,31.32,84.2,40.19,38,27.41,43.5,82.64,38.52,26.66,49.63,36.63,32.41,13.66,41.87,32.67,58.65,83.76,85.97,70.57,26.38,38.78,39.81,31.81,32.36,6.21,29.06,42.32,26.43,84.09,58.94,38.51,14.68,55.73,45.61,40.65,23.57,14.54,22.03,68.93,33.7,59.72,17.13,32.63,47.71,63.03,47.37,22.71,30.76,42.99,55.53,68.45,35.09,44.18,63.44,20.53,35.1,13.46,84.95,79.72,48.55,36.35,30.8,17.48,38.12,53.75,76.84,32.66,30.66,20.72,26.08,40.94,10.77,17.19,67.89,26.84,109.32,69.26,22.11,39.48,82,40.19,46.94,97.23,11.94,37.87,58.88,106.39,26.36,100.78,160.88,604.57,25.87,62.65,17.32,31.87,50.56,28.72,135.24,13.46,93.67,28.54,58.89,24,57.8,154.97,64.89,52.86,56.04,6.78,25.83,41.14,25.39,69.06,47.18,101.52,67.74,34.8,38.39,13.1,36.29,40.42,43.1,70.15,13.15,58.03,29.65,13.72,61.89,139.97,69.61,140.68,5.37,81.19,67.12,40.89,8.8,31.13,26.24,4.85,36.11,62.17,10.06,48.23,50.95,40.01,91.52,51.38,24.53,17.14,28.14,58.62,60.76,33.77,15.7,20.76,76.38,15.52,38.39,27.27,26.57,21.58,29.79,56.5,59.59,85.24,38.33,44.8,33.34,22.42,61.3,33.44,26.9,15.32,58.36,69.76,19.13,76.34,52.36,18.66,37.54,31.69,27.42,58.79,59.52,47.68,38.93,36.6,48.14,126.25,74.63,38.78,69.13,34.12,48.13,31.84,80.19,57.41,31.96,40.11,16.46,23.33,72.63,46.37,7.66,35.72,15.6,50.24,89.01,25.54,7,32.28,22.16,23.46,14.65,60.88,60.44,19.07
87.43,30.01,33.63,57.45,70.66,83.06,31.44,3.64,10.95,37.01,44.23,25.92,37.11,76.6,78.92,37.67,8.21,108.4,27.36,86.06,35.92,35.69,30.69,247.88,29.53,39.37,57.06,34.18,68.52,51.83,37.61,81.19,30.14,68.05,37.13,50.52,82.47,24.99,27.53,91.7,11.17,25.71,33.99,32.83,31.41,48.15,41.16,358.28,132.44,28.04,14.76,43.49,40.94,7.92,96.55,55.27,29.68,73.06,66.98,28.56,84.25,16.9,147.07,168.09,15.37,15.53,67.49,33.26,104.57,5.41,30.81,34.33,62.61,24.33,13.77,20.66,54.82,32.85,54.76,37.76,26.43,30.65,32.52,77.97,17.22,35.14,36.03,19.12,36.98,36.75,199.27,53.65,17.51,104.04,285.99,70.63,45.45,35.72,38.16,17.74,29.64,78,31.53,67.94,49.16,21.4,54.17,34.95,28.43,32.11,51.01,32.24,29.56,30.96,23.93,51.29,28.13,55.9,33.22,11.33,89.65,4.83,47.96,62.34,20.73,91.8,44.39,52.56,46.97,48.82,14.75,70.2,29.26,15.23,35.87,55.63,57.68,52.3,37.45,28.25,50.66,48.19,48.71,46.25,26.51,41.9,54.47,59.27,78.49,8.59,45.86,52.48,41.88,47.36,61.93,41.29,104.24,13.03,25.72,47.16,51.98,62.19,54,53,44.88,56.02,58.65,32.91,51.06,35.42,63.06,81.95,94.47,60.75,41.04,86.46,30.2,14.22,8.7,18.92,38.91,35.74,19.3,41.59,50.83,52.7,47.13,8.84,35.06,84.05,37.58,31.35,3.86,19.13,14.5,34.37,36.32,60.94,19.05,36.66,58.17,5.25,29,103.55,11.98,201.94,31.47,40.31,44.13,43.96,17.1,34.49,41.49,52.87,42.54,69.58,48.6,16.08,54.47,55.13,27.82,19.18,33.99,14.37,6.91,67.88,6.24,56.02,35.43,49.43,22.53,134.82,10.28,185.5,57.56,11.51,31.79,57.15,491.09,22.57,24.16,20.77,39.48,11.19,63.37,25.61,50.35,34.8,17.61,47.74,8.08,74.57,18.69,32.33,49.13,49.19,21.58,65.81,88.26,33.45,23.96,21.97,32.55,20.01,48.21,42.13,22.62,31.01,83.64,40.33,38.33,27.37,41.87,83.15,38.43,26.31,48.71,36.58,32.35,13.56,42.01,32.51,59.48,83.34,86.06,70.82,26.33,39.3,39.99,31.69,32.05,6.09,28.66,42.3,26.64,83.62,57.25,38.62,15.17,54.62,45.57,40.57,23.64,14.35,22.39,68.29,33.8,55.93,17.17,32.99,46.89,62.92,47.32,23.05,30.06,42.42,55.37,67.12,35.4,44.48,63.31,20.71,34.6,12.74,83.42,77.94,48.8,36.73,30.73,17.07,37.39,53.98,76.87,32.59,30.86,20.02,25.96,41.81,10.77,17.31,67.93,27.1,109.98,69.81,22.03,39.5,82.3,40.59,47.7,97.13,11.78,38.03,59.05,104.6,26.62,99.57,160.25,596.89,25.97,62.85,17.22,32.14,50.67,28.74,136.24,13.53,94.14,28.53,58.27,24.07,58.12,153.38,65.11,52.8,57.03,6.83,25.68,41.46,25.07,68.57,46.97,101.23,68.01,34.73,38.39,13.24,36.21,40.1,43.59,69.22,12.99,59.25,30.01,13.58,61.83,140.03,69.08,140.73,5.39,82.22,67.7,41.02,8.71,31.25,26.44,4.8,36.75,62.32,10.01,48.14,50.91,40.12,91.51,51.92,24.96,17.19,28.13,59.15,60.52,33.6,15.81,21.24,77.42,15.48,37.98,27.04,26.26,21.59,29.88,56.46,58.19,84.92,38.14,45.16,33.56,22.55,61.2,34.65,26.76,15.54,58.76,69.66,18.47,74.91,52.61,18.65,38.1,31.41,27.21,59.68,60.28,48.1,39.62,36.26,47.52,126.52,74.8,37.57,70,34.06,48.31,32,79.87,56.95,31.74,40.59,16.5,23.47,73.19,46.31,7.75,36.12,15.85,49.58,86.9,25.71,6.9,32.17,22.28,23.18,14.89,60.18,61.63,19.15
87.5,30.14,33.3,57.73,70.42,83.07,32.26,3.51,10.95,37.03,43.64,25.7,37.11,77.19,79.13,37.71,8.3,106.81,27.75,85.59,36.29,35.11,30.55,246.22,29.81,39.2,55.67,34.43,68.68,51.61,37.03,80.95,29.66,67.61,37.07,50.22,82.57,25.02,28.19,91.06,11.16,25.47,34.58,32.94,31.3,48.23,41.14,363.07,132.48,28.29,14.78,43.3,41.33,7.88,97.9,54.92,29.75,73.41,67.17,28.7,85.19,16.8,146.67,167.21,15.11,15.6,68.49,33.08,104.22,5.52,30.76,33.93,63.07,24.33,14.05,20.2,54.28,32.47,54.45,37.08,26.46,31.62,32.45,78.06,17.01,34.77,35.48,19.13,36.96,36.76,202.69,53.72,17.83,103.62,288.57,70.48,45.44,35.63,38.39,17.65,29.71,77.62,32.51,67.86,49.16,21.31,53.85,35.16,28.46,31.93,50.67,32.41,29.35,31.35,23.72,50.07,28.23,55.4,33.16,11.28,89.71,4.92,47.84,62.74,20.42,91.84,44.01,52.51,47.25,50.15,14.63,70.86,29.26,15.23,35.74,55.21,57.61,52.86,36.64,28.23,51.06,47.33,48.7,45.56,26.33,41.77,54.18,58.96,78.56,8.56,45.81,52.98,41.65,47.16,62.35,41.31,103.95,13.14,25.78,46.37,52.24,61.91,53.61,52.93,44.81,55.77,58.46,32.63,51.17,35.19,62.85,82.15,94.49,61.1,39.97,84.74,30.5,14.1,8.73,18.65,38.27,35.72,19.37,41.4,50.97,53.26,46.96,8.99,34.92,83.2,37.41,31.03,3.86,19.26,14.56,34.03,36.44,61.06,19.18,36.35,57.8,5.17,29.22,106.99,12.4,196.34,31.72,40.24,43.91,43.65,17.43,34.42,41.59,52.75,42.54,69.29,48.27,16.35,54.23,54.98,27.5,19.13,34.03,14.28,7.04,68.56,6.17,55.57,35.19,49.08,22.5,133.79,10.31,185.98,57.67,11.49,31.79,56.9,487.7,22.6,24.1,20.79,39.45,11.18,63.38,25.64,49.91,34.9,17.41,47.31,7.99,74.22,18.58,32.16,48.22,48.44,21.79,66.12,88.82,33.08,23.96,21.89,32.57,19.84,48.32,42.61,22.49,30.96,84.56,40.46,37.79,27.05,41.84,84.02,38.1,26.05,48.25,36.35,32.11,12.99,41.79,32.32,59.57,83.35,87.49,73.09,26.42,38.96,40.17,31.7,31.73,6.19,28.66,42.64,26.53,84.52,55.56,38.79,15.34,56.6,45.65,39.62,23.79,14.46,22.42,68.73,33.73,54.96,17.27,32.42,47.03,62.88,47.37,23.26,29.67,42.16,54.8,66.2,35.1,44.76,63.09,20.55,34.49,12.78,83.98,77.5,48.84,36.64,31.21,17.25,37.46,53.51,76.32,32.62,30.89,20.31,26.43,41.31,10.77,17.26,67.55,27.12,109.67,69.31,22.16,39.09,81.8,39.95,47.41,95.89,11.93,37.92,58.58,105.18,26.64,100.29,158.23,595.18,26.15,62.75,17.22,32.25,50.71,28.69,136.07,13.81,92.77,27.99,58.38,24.02,58.44,151.21,64.98,53.16,56.99,6.81,25.69,41.15,24.85,67.73,46.99,100.76,66.84,34.87,38.19,13.81,36.18,39.81,43.83,69.05,13,59.03,30.13,14.39,61.46,138.94,69.43,140.02,5.32,82.17,67.64,40.93,8.95,31.52,26.28,4.95,36.58,62.9,10.23,48.42,50.08,40.34,91.97,51.25,24.8,17.24,28.01,58.51,60.42,33.09,15.7,21.08,78.35,15.33,37.77,26.78,26.17,21.56,29.66,56.19,57.05,85.77,38.97,44.64,33.6,22.41,61.1,35.4,26.5,15.23,57.3,67.99,18.27,74.6,52.34,18.56,38.25,31.38,27.38,58.59,60.2,48.29,39.71,36.27,47.15,125.62,74.58,37.81,70.03,34.24,49.41,31.63,79.61,56.72,31.7,40.13,16.52,23.47,72.43,46.16,7.74,36.09,15.81,49.14,85.94,25.67,7.05,31.79,22.07,23.25,15.09,60.52,61.24,19.18
88.96,30.68,34.76,60.1,71.17,82.99,32.79,3.66,11.03,37.22,45.1,26.22,37.68,78.51,81.15,39.21,8.54,109.03,29.36,88.66,36.93,36.62,30.86,251.38,29.95,39.72,55.89,33.84,69.35,53.16,37.47,81.65,30.33,69.96,38.05,50.9,84.6,25.23,30.39,91.88,11.34,26.17,35.1,33.39,32.77,49.19,42.04,368.72,133.32,29.19,15.29,44.1,41.83,8.28,99.2,55.83,30.21,74.09,69.67,29.13,86.47,17.11,152.19,171.18,15.13,16.08,69.34,34.44,104.74,5.55,31.15,35.09,64.91,24.89,14.36,20.7,54.78,32.91,55.41,37.28,26.78,32.76,33.58,79.98,17.48,36.02,37.24,19.46,37.17,37.64,207.19,54.38,17.98,105.73,302.33,71.63,45.94,36.02,39.31,18.43,31.06,81.75,32.64,68.36,50.53,21.54,56.81,35.76,29.38,32.97,51.14,33.31,30.48,31.72,24.13,50.91,28.46,56.07,34.06,11.71,91.32,5.01,48.37,64.02,21.05,94.82,44.94,54.13,48.56,50.42,14.62,72.96,30.1,15.62,36.39,56.55,58.32,53.26,36.95,28.71,50.64,48,49.88,46.15,27.33,42.38,54.72,59.45,79.07,8.85,46.81,54.54,43.66,48.91,63.36,41.68,106.82,13.63,26.86,47.29,52.56,62.76,55.52,54.14,45.86,56.13,59.8,32.99,52.42,36.04,63.75,83.71,99.05,61.16,39.91,86.6,31.21,14.23,9.02,20.03,38.78,36.38,19.93,42.24,52.18,54.46,47.37,9.32,35.67,85.43,38.54,31.99,3.93,19.74,15.03,34.64,37.13,62.89,19.79,36.65,59,5.45,29.75,110.49,12.83,196.54,32.26,42.11,46.02,44.45,17.98,35.18,42.14,53.06,44,70.2,49.75,16.65,55.3,56.57,27.86,19.72,34.42,14.92,7.11,69.78,6.28,56.77,35.74,49.79,23.16,135.16,10.56,189.85,58.62,11.89,33.07,58.31,495.92,23.47,24.48,21.22,40.6,11.79,63.92,26.4,51.76,36.38,18.15,47.51,8.18,75.13,18.76,32.38,49.41,49.96,22.31,67.57,89.5,34.11,24.71,22.1,33.75,20.39,49.16,43.54,23.45,31.93,85.76,40.46,37.57,27.32,43.16,85.44,38.56,27.1,48.83,37.67,32.58,13.32,42.83,33.14,60.53,84.86,88.27,72.85,26.86,39.65,40.91,32.58,32.52,6.68,29.56,43.45,26.93,86.34,58.07,40.11,15.9,58.76,47.01,40.7,24.07,14.91,22.86,69.68,34.71,56.65,17.76,33.04,48.25,63.13,48.4,23.74,29.86,43.71,55.65,68.03,35.54,45.88,64.2,21.48,35.51,13.17,83.66,79.57,49.94,37.21,31.76,18.78,39.17,54.89,79.06,33.09,31.55,20.5,27.97,41.85,10.94,17.44,68.13,27.82,111.29,69.67,22.55,39.28,82.16,41.55,48.03,99.18,12.29,38.14,59.69,109.27,26.58,102.34,163.64,604,26.63,63.63,17.27,32.98,52.18,29.1,137.02,14.38,94.33,28.36,60.25,24.78,59.71,155.17,65.53,54.23,59.1,7.03,26.18,40.88,26.12,68.62,48.06,103.62,67.8,35.26,39.36,13.8,37.22,43.15,44.53,70.22,13.61,59.56,29.37,14.42,62.45,141.02,69.97,140.82,5.42,82.77,70.56,41.56,9.07,32.35,26.58,4.96,37.41,67.96,10.57,49.43,52.49,41.22,93.4,52.28,26,18.22,28.44,60.39,61.49,34.17,15.91,21.64,80.62,15.86,38.22,27.76,26.9,22.05,30.63,57.36,58.43,87.01,39.87,45.28,33.97,22.75,62.31,35.45,27.08,15.41,58.27,67.99,18.89,75.91,52.93,19.07,39.03,32.18,27.56,59.5,60.47,49.01,40.03,36.79,47.97,127.48,75.04,38.35,71.23,33.59,50.45,32.04,81.67,57.54,32.72,41.35,16.9,23.89,74.85,47.08,7.87,36.31,16.36,51.7,87.62,25.95,7.3,33.04,22.49,24.11,15.11,61.23,62.66,19.55
88.52,30.57,35.1,60.64,71.12,83.59,32.46,3.45,11.04,37.83,45.94,26.88,37.56,78.6,82.53,38.73,8.87,110.61,30.67,88.63,36.95,36.56,30.57,259.14,29.89,39.66,56.2,33.62,69.63,53.6,37.03,80.83,30.47,71.16,38.15,50.7,87.88,25.47,30.29,92.45,11.29,26.1,35.22,33.27,32.22,49.1,41.82,369.72,134.14,29.14,15.54,45.52,41.92,8.73,99.24,55.96,30.75,74.74,69.17,29.05,86.64,17.26,152.5,172.93,15.21,16.02,69.41,35.78,106.06,5.63,30.96,35.08,64.85,24.98,14.55,20.99,56.02,32.77,55.65,36.45,27.75,32.24,34.63,83.1,17.7,36.32,37.72,19.42,36.91,37.67,209.22,54.75,18.56,106.64,326.35,71.45,46.08,35.63,39.24,18.27,32.01,80.59,37.36,67.75,52.33,21.49,58.46,35.53,29.45,33.6,50.57,33.13,31.01,32.01,23.86,51.69,30.45,55.67,33.65,11.94,91.08,4.96,48.71,63.61,21.29,96.88,44.52,54.71,48.54,50.29,14.46,74.08,30.38,16.06,36.86,57.46,58.33,53.29,37.18,28.83,49.85,47.71,49.31,47.02,28.07,41.91,54.54,59.19,79.51,9.06,47.48,55.2,44.92,49.24,63.67,41.61,108.82,14.04,27.04,47.12,52.19,61.82,55.76,54.83,45.53,55.98,59.85,32.94,53.14,36.69,63.3,84.59,100.27,61.02,39.87,86.45,31.25,14.47,9.07,20.44,38.57,36.4,20.09,42.86,53.62,54.9,48.54,9.52,35.37,86.65,38.79,34.71,3.85,20.3,15.03,34.49,37.84,63.34,20.05,36.58,58.88,5.65,29.63,113.21,13.01,196.63,33.51,42.53,46.63,44.6,18.8,34.9,41.79,52.57,46.12,69.39,51.78,16.49,54.92,57.41,27.93,19.71,34.97,15.35,7.19,70.32,6.37,57.61,35.64,49.38,22.32,135.36,10.54,190.23,58.78,11.88,33.77,58.04,500.74,23.7,24.47,21.19,40.2,12.29,63.95,26.67,55.21,36.95,18.63,47.5,8.28,74.51,18.68,32.47,48.87,49.7,21.95,68.04,88.79,34.54,25.06,22.19,33.61,20.89,48.8,43.39,23.66,31.81,85.16,40.71,37.44,27.26,44.05,86.29,38.66,27.42,49.76,38.26,32.55,13.65,43.18,33.01,60.14,85.19,87.34,73.12,27.18,39.68,40.73,32.88,32.28,6.42,29.18,43.27,25.46,86.29,58.22,40.13,16.71,58.72,47.18,41.43,24.06,15.29,22.86,71.66,34.95,56.66,17.92,33.34,49,63.35,48.31,23.61,29.85,44.75,55.22,67.94,35.62,45.95,63.89,20.95,36.73,12.85,83.25,82.26,50.16,37.35,31.73,19.66,39.84,55.37,80.41,32.92,31.55,22.71,28.5,41.71,10.96,17.37,68.08,28.07,111.17,69.76,22.46,39.53,81.56,42.36,47.9,103.03,12.48,38.15,60.43,109.4,26.61,102.78,162.55,621.55,26.89,63.89,17.2,33.32,53.05,29.05,136.41,14.51,93.84,29.47,59.59,24.75,59.25,157.35,67.1,54.08,59.15,7.18,26.51,40.19,26.17,70.16,49.38,103.56,66.7,35.75,39.98,13.66,37.39,43.4,44.43,70.91,13.67,59,28.35,14.48,62.28,140.11,71.96,140.99,5.47,82.27,70.8,41.41,9.05,32.63,26.89,5.03,37.78,68.44,10.73,49.75,53.48,41.35,93.6,52.24,26.8,18.19,28.4,60.49,60.68,34.72,15.86,21.64,80.2,16.18,38.78,27.4,27.43,21.94,31.29,58.05,60.25,87.16,40.26,44.86,34.05,22.89,62.18,35.61,27.02,15.36,58.75,68.62,20.55,75.92,52.92,19.25,38.73,32.23,28.22,59.9,59.66,48.93,39.64,37.06,48.96,127.69,75.28,40.21,70.29,33.34,50.34,32.09,83.18,58.09,32.87,40.15,16.96,23.84,75.1,46.83,7.93,35.9,16.45,52.34,88.64,25.73,7.3,33.2,22.78,24.24,15.22,62.82,63.81,20.11
86.47,30.8,35.17,60.24,70.87,83.59,32.13,3.47,11.11,37.06,45.66,26.76,37.56,78.24,82.21,38.49,8.82,110.07,30.26,88.72,36.73,36.2,30.73,257.09,29.74,39.6,56,32.93,69.12,53.04,36.88,80.92,30.27,69.39,37.8,50.41,87.57,24.96,28.03,90.04,11.13,26.05,35.15,33.37,31.97,48.93,41.55,366.28,131.25,29,15.43,45.43,41.83,8.51,97.93,56.1,30.49,74.53,68.74,28.87,86.61,17.21,151.6,168.95,15.37,15.79,67.69,35.4,104.99,5.6,30.81,34.57,64.57,25,14.65,20.96,55.91,32.47,55.29,36.39,27.69,32.22,34.14,82.16,17.28,36.2,36.79,19.4,36.87,36.9,206.47,54.64,17.86,106.6,332.81,71.31,45.94,35.55,39.09,17.88,31.77,80.34,36.68,67.32,52.52,21.52,59.32,35.3,29.2,33.41,49.34,32.85,30.5,32.05,23.93,51.27,30.26,55.54,32.76,11.97,91.75,4.91,48.42,62.87,21.26,93.82,44.64,53.75,48.95,49.23,14.32,73.1,30.11,15.76,36.71,57.49,58.52,53.42,36.94,28.73,48.97,47.41,49.42,47.03,28.04,41.57,54.53,59.29,79.94,8.75,47.55,55.01,44.62,48.53,63.06,41.64,107.32,13.84,26.73,47.09,51.93,61.77,55.52,54.58,45.18,54.96,59.67,32.53,51.8,37.24,61.75,84.17,96.63,61.09,39.98,87.02,31.04,14.36,9.1,20.79,38.32,36.2,19.86,42.63,54.7,55.62,48.14,9.49,34.82,85.87,38.79,34.95,3.92,20.23,15.26,34.06,36.77,62.51,19.95,36.63,59.02,5.72,29.83,111.6,12.97,195.9,33.54,43.25,46.07,44.3,18.39,35.09,41.47,51.98,45.11,68.98,52.01,16.63,54.96,57.08,27.94,19.44,34.17,15.51,7.18,68.25,6.36,57.41,35.46,49.36,21.46,134.05,10.63,191.61,58.63,11.75,32.36,58.2,495.19,23.31,24.4,21.17,40.77,12.29,64.24,26.61,53.81,36.45,18.13,47.38,8.3,74.01,18.62,32.4,49.17,49.84,22.26,68.1,88.93,34.15,24.66,22.26,32.87,20.71,47.94,43.27,23.6,31.35,85.02,40.74,37.41,27.62,43.94,86,38.21,27.29,50.21,37.88,32.3,13.68,43.31,33.05,60.12,85.45,86.69,72.93,27.06,39.54,40.93,32.6,31.79,6.41,28.97,42.96,25.6,86.32,57.22,40.52,16.25,57.79,46.74,41.69,23.95,15.11,22.72,70.87,34.24,55.92,17.91,33.4,48.68,63.62,48.68,23.51,29.64,45.54,55.56,68.39,35.51,45.1,63.59,21.13,36.48,12.74,85.06,81.48,50.4,37.47,31.45,19.62,39.67,55.13,80.43,32.86,31.47,22.7,28.7,41.63,10.83,17.37,67.84,27.97,110.73,69.83,22.33,39.51,81.37,42.63,47.9,103.06,12.65,38.06,60.51,111.97,26.51,102.56,158.92,608.32,26.3,63.88,17.41,33.32,52.05,29.16,135,14.28,93.37,29.48,58.97,24.46,58.85,156.6,67.43,53.63,58.42,7.23,26.35,40.13,26.21,69.42,49.36,103.36,65.48,36.24,40.66,13.69,37.33,43.14,44.37,70.45,13.57,58.93,27.67,15.05,62.24,140.62,71.67,138.48,5.48,82.03,70.12,41.22,9.01,32.5,26.68,5.15,37.43,68.32,10.37,49.42,53.41,41.26,93.03,51.66,26.93,18.23,28.36,60.35,61.43,34.53,15.78,21.44,74.63,15.92,38.74,26.92,26.95,21.73,31.04,58.17,60.64,87.66,39.73,44.85,33.81,22.65,62.28,35.29,26.53,15.58,59.05,69.04,20.36,75.16,51.82,19.09,39.48,32.09,28.08,59.93,58.92,47.9,39.94,37.31,48.86,126.67,75.24,41.29,70,33.53,50.12,31.88,83.22,57.28,32.49,39.5,17.05,23.86,75.57,46.87,7.96,35.64,16.17,51.73,88.94,25.74,7.09,32.97,22.77,23.74,15.11,63.19,63.56,19.82
86.94,30.86,34.61,61.05,71.14,82.81,32.43,3.75,11.15,36.76,46.25,26.46,37.48,78.95,81.95,38.12,9.09,109.65,31.65,88.97,36.97,36.04,30.68,255.67,29.69,39.64,55.71,33.08,69.45,53.29,36.63,80.81,30.22,70.59,37.95,50.6,87.77,24.87,28.74,89.75,11.09,26.14,35.72,33.55,32.19,48.76,41.46,369.9,130.97,29.07,15.46,46.04,42.09,8.96,98.17,56.45,30.47,75.1,69.33,28.85,86.76,17.59,151.95,167.89,15.38,15.81,67.87,36.26,104.49,5.58,31.2,34.57,63.68,25.35,14.67,22.16,57.2,32.35,54.74,36.26,27.93,32.21,34.48,83.58,17.65,36.14,36.81,19.37,37.29,36.41,205.64,54.77,18.35,106.81,332.51,71.75,46.49,36.01,39.17,17.78,32.6,80.18,39.02,67.12,52.49,21.43,58.25,35.41,29.28,33.63,48.92,32.95,30.51,31.87,23.97,51.44,30.46,55.38,32.8,12.15,90.9,4.87,48.59,63.23,21.62,94.65,44.51,54.2,48.89,48.8,14.56,74.11,30.33,16.49,37.09,58.7,59.68,52.84,37.05,28.63,48.83,46.42,49.11,47.2,27.99,41.81,54.65,58.95,79.93,8.94,47.94,54.4,45.1,48.33,62.64,41.73,105.99,13.81,26.67,46.76,52.67,61.41,55.53,56.49,45.55,54.87,59.08,32.34,52.82,37.69,61.71,84.31,95.31,60.83,40.24,87.75,30.56,14.35,9.27,21.8,38.19,36.19,19.95,43.14,55.81,56.17,48.66,9.53,34.67,84.95,38.96,35.15,4.03,20.4,15.91,33.72,36.72,62.19,20.05,36.63,58.88,5.76,29.66,113.56,12.91,196.56,34.6,43.55,46.37,45.23,18.56,35.75,41.87,52.39,46.43,68.26,53.44,17.12,54.4,57.3,27.96,19.98,34.29,15.54,7.31,68.25,6.47,57.35,35.65,49.35,21.53,134,10.76,193.83,58.47,12.08,32.07,58.52,487.41,23.49,24.21,21.49,41.67,12.66,64.26,27.02,55.05,37.24,18.46,47.53,8.32,73.99,18.76,32.39,48.85,49.22,22.6,68.16,88.99,33.89,25.99,22.51,32.76,20.89,47.59,43.24,23.71,31.43,85.22,41.01,36.64,27.53,44,87.26,37.52,28,51.16,38.24,32.22,13.9,43.85,33.04,60.14,85.36,86.3,71.9,27.1,39.75,40.99,32.95,31.72,6.36,29.03,43.09,25.32,86.4,56.36,41.33,16.88,58.06,47.08,41.87,24.01,15.41,22.79,72.72,34.34,57.16,17.96,33.99,49.29,63.44,48.5,23.58,29.88,45.94,55.47,69.45,35.34,45.43,63.94,21.46,36.62,12.89,85.64,81.59,50.59,37.67,31.46,19.76,39.84,55.78,81.1,33.02,31.45,23.31,29.47,41.45,10.83,17.16,67.59,28.3,109.85,69.99,22.39,39.39,81.15,43.63,47.87,105.43,12.88,37.95,60.59,112.04,26.33,102.36,159.22,617.76,26.61,63.65,17.56,33.74,52.57,28.94,134.83,14.43,92.5,30.5,59.51,24.54,59.05,152.6,70.24,53.68,57.18,7.14,26.36,39.8,26.27,67.88,49.6,103.17,64.88,36.91,41.02,13.72,37.7,43.66,44.38,71.39,13.57,60.27,27.89,15,62.26,138.76,71.16,139.83,5.55,82.19,69.82,40.97,8.81,34.16,26.61,5,37.71,68.72,10.48,49.32,53.85,41.45,93.19,52.1,26.88,18.26,28.29,60.5,61.13,34.88,15.82,21.68,75.14,15.79,38.94,26.84,26.93,21.77,31.15,58.2,59.89,87.67,39.7,44.56,34.1,22.57,63.84,35.38,26.57,15.78,59.69,69.5,21.26,75.3,50.91,19.29,38.9,32.29,28.74,60.33,59.36,47.25,40.11,37.51,49.01,129.44,75.74,41.82,70.52,33.5,50.16,31.77,83.42,56.51,32.07,40.52,17.13,24.21,76.66,45.97,8.17,35.64,16.6,51.93,90.42,25.65,7.12,33.21,22.83,24.51,15.16,63.87,64.09,19.84
86.6,31.1,36.48,61.32,71.57,82,32.42,3.89,10.92,36.23,46.17,26.22,37.52,78.39,80.02,37.89,9.11,109.06,32.25,89.31,37.28,35.87,30.09,255.63,29.52,39.7,55.75,33.43,69.65,53.78,36.76,80.05,30.14,71.39,37.98,50.64,88.48,24.9,28.84,91,11.04,26,36.09,33.64,32.58,47.88,41.09,373.16,130.47,29.03,15.29,46.76,42.17,8.9,99.38,57.02,30.75,74.87,69.77,28.88,86.73,17.59,152.26,167.87,15.53,15.78,67.57,36.56,104.57,5.64,31.24,35.05,62.77,25.32,15.19,22.67,58.39,32.4,56.14,35.91,27.65,32.73,34.44,84.07,18.35,35.48,36.99,19.19,37.5,35.7,208.85,54.76,18.15,107.09,337.89,72.3,46.08,36.09,39.67,17.82,32.99,80.28,38.03,66.73,52.8,21.37,57.71,35.44,29.43,34.1,48.82,33.26,31.1,32.02,23.85,51.6,30.54,55.26,32.49,12.09,92.15,4.74,48.47,62.86,21.79,94.89,44.92,54.44,49.53,49.24,14.16,74.62,30.22,16.35,36.98,59.68,59.91,53.26,36.98,28.95,49.72,46.07,48.94,46.96,27.93,41.82,54.31,58.58,80.36,9.32,47.17,54.47,45.13,47.99,62.58,41.76,105.65,13.99,26.66,46.76,53.33,61.44,55.8,57.27,44.87,54.77,58.5,31.78,53.25,37.88,62.25,84.24,96.97,61.72,40.39,88.13,30.32,14.43,9.5,22.48,38.13,35.97,20.13,43.26,55.79,56.26,49.16,9.59,34.65,84.06,39.53,35.3,4.1,20.68,16.03,34.11,37.78,62.09,20.33,36.64,59.13,5.71,29.88,115.07,12.87,199.56,34.97,44.15,46.38,46.21,18.67,36.03,41.86,52.37,46.4,68.06,53.62,17.16,54.72,57.6,27.92,20.24,34.37,15.61,7.31,67.02,6.61,58.07,35.63,48.55,21.39,134.2,11.12,194.3,57.87,12.12,32.61,58.49,486.08,23.67,24.54,21.28,41.64,12.69,64.21,27.38,55.27,37.54,19.25,47.48,8.36,73.98,18.74,32.32,48.53,50.87,23.1,68.71,88.94,33.6,25.77,22.61,34.19,21.09,47,43.3,23.94,31.4,85.38,40.91,35.05,27.16,44.19,87.59,37.67,27.85,51.29,38.42,32.29,14.23,44.2,33.04,59.52,85,85.94,71.75,27.41,39.72,41.18,32.27,31.48,6.47,29.02,43.01,25.2,84.94,50.78,42.37,17.04,57.59,47.52,41.87,23.96,15.27,23.06,73.2,34.36,57.21,18.11,33.75,49.82,62.85,49.07,23.66,30.71,45.89,55.64,69.92,35.01,45.91,64.43,21.49,36.36,13.04,85.64,81.99,50.6,37.8,31.4,19.33,39.58,56.33,80.87,33.13,31.09,23.03,29.05,42.28,10.92,16.98,66.16,28.25,109.28,68.55,22.3,39.19,79.58,44.29,47.77,106.43,13.1,38.65,60.77,111.95,26.22,101.79,158.55,619.95,26.68,63.5,17.95,33.9,52.79,28.67,136.33,15.3,92.53,31.58,60.08,24.87,58.64,154.92,70.42,54.14,57.32,7.11,26.38,39.05,25.94,67.33,50.92,102.79,65.29,36.57,40.94,13.77,38.18,44.1,44.37,72.03,13.65,60.41,27.79,15.2,61.98,140.92,70.88,140.59,5.59,82.3,70.02,40.88,9.04,35.39,26.45,5.1,38.4,69.4,10.63,49.75,53.75,41.52,93.28,52.5,27.38,18.32,28.04,60.79,61.04,34.85,15.73,21.84,75.02,15.75,38.97,26.85,27.53,21.91,31.36,58.45,60.17,88.08,39.73,44.6,34,22.57,64.41,35.25,26.82,15.87,60.05,69.6,21.21,75.37,51.14,19.21,39.24,32.19,28.75,61.44,59.54,47.42,40.7,37.48,49.18,131.38,75.97,46.3,70.53,33.74,50.3,31.62,83.64,56.09,32.24,39.79,17.28,24.65,77.47,46.15,8.31,35.22,16.86,51.59,92.71,25.57,7.28,33.27,22.94,24.14,15.4,63.82,64.05,20.25
87.79,31.75,37.08,61.91,72.98,82.9,32.81,3.92,11.15,37.03,46.93,26.85,38.13,79.24,79,38.18,9.39,110.46,33.09,88.98,37.86,36.22,30.55,260.24,30,40.12,57.49,34.06,70.47,55.16,36.91,80.22,30.71,73.02,38.57,51.29,90.4,25.1,28.87,92.79,11.28,26.2,36.55,34.02,32.74,48.21,41.86,369.96,131.56,29.32,15.82,47.68,42.67,9.32,100.34,57.46,31.46,75.45,70.3,29.54,88.56,17.34,152.5,172.81,15.79,15.88,68.16,37.55,106.49,5.78,31.34,35.13,63.07,25.4,15.45,22.77,58.57,32.43,57.17,35.95,27.95,33.34,35.35,85.54,19.6,36.25,37.54,19.56,37.78,36.62,214.55,54.55,18.16,109.03,340.8,73.22,47.24,36.67,40.01,18.08,34.38,80.31,40.43,66.97,53.18,21.61,58.2,36.2,29.77,35.02,49.74,33.89,32,32.5,24.22,52.61,31.71,56,32.76,12.24,93.85,4.83,49.26,63.15,21.98,96.52,45.86,55.06,49.75,49.79,14.4,76.11,30,16.91,37.1,60.42,60.03,54.19,37.94,29.71,50.74,46.85,49.71,47.82,29.09,42.66,54.91,59.14,81.55,9.56,48.02,56.23,45.29,48.88,63.32,42.36,105.24,14.24,26.87,47.28,53.33,62.33,56.89,57.41,45.52,55.63,59.45,32.42,54.57,37.99,62.93,85.82,100.39,62.08,40.57,89.39,30.72,14.75,9.7,22.61,39.12,36.08,20.34,43.1,57.17,57.48,49.04,9.71,35.16,84,40.39,36.78,4.05,20.98,16.34,34.22,38.17,62.32,20.45,36.78,59.61,5.89,30.12,117.43,13.13,198.73,35.67,44.23,46.89,46.91,19.23,36.22,42.11,53.2,48.03,69.11,54.53,17.4,55.92,58.58,28.09,20.95,34.92,16,7.45,67.58,6.74,58.35,35.59,48.99,21.55,135.09,11.26,196.77,58.37,12.26,33.26,58.54,489.72,24.31,24.43,21.44,42.61,12.91,65,27.64,57.5,38.93,19.33,47.9,8.49,74.82,19,32.59,48.52,50.81,23.06,69.15,90.46,33.73,25.74,22.95,34.78,21.7,47.57,43.86,24.61,31.74,86.04,41.84,35.29,27.93,46.24,89.12,37.73,28.61,52.43,39.83,32.89,14.79,45.07,33.15,60.35,85.7,86.8,72.99,27.94,40.34,41.69,33.05,31.98,6.6,29.18,43.71,25.55,86.79,53.41,42.54,17.51,58.6,48.22,43.5,24.26,15.87,23.45,73.93,34.44,58,18.17,34.38,52.56,64.34,48.27,23.9,31.12,46.8,55.36,70.4,35.69,46.81,63.55,20.97,37.73,13.12,81.53,85.39,51.04,38.33,31.75,19.74,39.94,60.81,82.26,33.22,31.48,23.79,28.66,41.78,11.19,17.19,66.93,28.91,110.25,68.4,22.47,39.4,82.78,44.63,49.04,109.13,13.16,39.47,62.27,114.67,26.61,102.31,160.58,626.93,27.26,64.26,18.32,34.69,53.76,29.24,138.15,15.76,93.11,32.41,61.43,25.7,59.45,156.5,70.41,54.62,58.99,7.41,26.94,39.71,25.99,67.04,51.14,103.76,66.43,36.69,41.27,13.81,39.25,44.49,45.03,73.33,13.95,60.45,28.09,15.6,62.85,142.52,71.68,143.31,5.7,83.17,70.22,41.42,8.97,35.76,26.75,5.2,38.85,70.01,11.02,50.29,55.24,42.4,93.32,53.24,28.14,18.46,28.48,61.66,61.68,35.3,15.87,21.48,74.95,16.1,39.04,27.15,28.05,22.45,32.03,59.21,61.54,89.21,40.89,45.55,34.25,22.81,65.27,36.34,26.55,15.99,60.78,70.63,21.97,76.99,52.17,19.49,39.5,33.07,28.76,61.76,59.96,48.01,41.32,38.78,50.58,132.88,77.51,46.79,71.55,34.37,51.17,31.69,85.15,56.07,33.39,40.84,17.5,25.22,77.9,46.95,8.31,35.55,17.07,52,94.92,25.94,7.35,33.2,23.55,24.49,15.6,64.22,65.19,20.75
89.62,31.3,37.87,62,72.97,81.86,33.34,3.9,11.22,37.87,47.24,27.79,37.87,80.36,79.1,39.03,9.59,110.47,34.99,88.82,38.28,36.73,29.77,261.27,29.85,39.85,57.7,34.64,69.08,56.19,36.23,78.33,31.08,74.5,39.31,51.81,90.4,25.67,29.42,93.92,11.47,26,36.78,33.23,33.47,48.77,42.17,351.99,131.32,30.16,15.83,48.73,42.41,9.47,100.64,57.19,31.81,75.97,71.6,29.68,88.7,17.59,154.24,173.86,15.96,15.93,67.88,38.59,107.64,5.82,30.91,35.19,62.38,25.42,15.79,22.83,58.99,32.32,57.55,36.5,27.86,32.34,35.48,87.89,20.36,36.45,38.13,19.49,37.3,36.01,217.71,54.58,18.73,109.68,336.45,72.57,47.74,36.71,39.53,18.2,34.72,81.74,42.64,65.71,52.77,21.35,58.8,35.98,29.88,35.5,49.36,33.94,31.93,33.59,23.87,53.12,32.02,54.92,32.19,12.49,93.33,4.83,50.32,62.61,22.1,98.86,45.4,54.41,49.04,49.22,14.21,77.66,31.04,17.45,37.18,61.68,59.94,54.13,37.99,30.02,50.16,47.2,49,49.3,29.85,41.42,54.48,58.71,81.35,9.88,49.06,56.69,44.73,49.97,62.76,42.42,105.1,14.5,27.2,47.13,53.18,61.95,58.1,58.89,46.03,55.67,60.07,32.75,54.88,38.03,62.84,86.83,103.67,62.12,41.88,89.19,30.51,14.91,9.92,24.61,38.72,35.9,20.55,44.01,58.91,57.46,49.96,9.89,34.87,93.6,40.91,37.53,3.93,21.7,16.45,33.79,39.12,62.94,20.54,36.25,59.75,6.12,31.01,118.1,13.36,198.82,36.65,44.81,47.93,47.83,19.65,37.05,41.59,52.43,49.47,67.25,54.98,17.33,57.03,58.48,27.87,21.64,34.67,16.24,7.56,69.24,6.88,58.11,35.81,48.65,21.56,138.28,11.18,197.2,57.78,12.56,33.04,58.84,501.65,24.47,24.7,21.97,43.32,13.45,64.51,28.04,60.05,39.09,19.25,47.31,8.69,74.29,19.19,32.82,49.47,50.52,22.99,69.66,90.99,34.17,26.09,23.17,36.12,22.64,48.94,43.46,25.04,31.93,85.48,42.2,34.89,28.3,47.58,90.15,37.69,29.8,53.33,40.44,33.1,15.25,44.96,33.63,60.13,85.82,86.25,72.62,28.26,41.06,40.72,33.78,31.98,6.7,29.43,43.59,25.42,85.89,53.77,42.61,17.85,58.51,48.63,44.53,24.3,16.43,23.7,74.31,34.96,60.52,18.83,35.21,54.22,63.48,47.02,23.9,31.06,47.33,55.27,70.55,35.16,47.04,62.91,21.26,37.99,13.28,80.37,86.79,50.98,38.44,32.07,19.97,41.12,62.05,82.99,33.07,31.77,24.53,28.82,41.41,11.2,17.15,66.53,29.85,111.78,67.08,22.05,39.33,82.16,44.72,48.94,113.01,13.64,40.42,63.26,114.92,26.45,103.66,161.22,637.48,27.7,64.49,18.46,34.67,54.38,29.23,139.27,16.25,94.56,33.05,62.42,25.82,58.83,159.14,69.81,54.07,60,7.43,26.73,39.74,26.5,67.86,51.27,103.9,66.61,36.74,41.25,14.11,39.86,44.8,44.52,75.2,14.06,61.2,28.24,15.68,61.51,143.04,72.24,144.23,5.76,82.28,70.99,40.64,8.93,35.64,26.74,5.26,40.08,73.03,11.25,49.06,56.1,42.24,93.17,54.03,29.15,18.4,28.19,63.13,61.31,35.63,15.79,23.04,75.24,16.33,39.47,27.76,28.22,22.61,32.4,59.84,63.1,88.66,41.24,45.46,34.37,23.07,65.4,36.06,26.36,16.1,61.72,69.64,21.98,78.83,52.52,20.01,39.71,33.13,29.6,61.6,59.69,47.78,40.37,39.58,50.45,132.16,78.26,49,70.94,34.37,50.93,31.59,85.04,56.22,33.93,39.38,17.86,25.43,80.22,46.86,8.37,35.17,17.48,51.79,97.51,25.77,7.47,33.54,23.77,24.69,15.77,63.6,65.45,21.15
